# Macroscopic dielectric function obtained with the BS equation.
#  RPA L0 with KS energies and KS wavefunctions     LOCAL FIELD EFFECTS INCLUDED
# RESONANT-ONLY calculation
# Coulomb term constructed with full W(G1,G2)
# Scissor operator energy =  0.8000 [eV]
# nstates included in the diagonalization = 96
# npweps  = 113
# npwwfn  = 259
# nbands  = 8
# loband  = 2
# nkibz   = 3
# nkbz    = 8
# Lorentzian broadening =  0.0000 [eV]
# List of q-points for the optical limit:
# q =  0.938821, 0.000000, 0.000000, [Reduced coords] 
# q =  0.000000, 0.938821, 0.000000, [Reduced coords] 
# q =  0.000000, 0.000000, 0.938821, [Reduced coords] 
# q =  0.000000, 0.813043, 0.813043, [Reduced coords] 
# q =  0.813043, 0.000000, 0.813043, [Reduced coords] 
# q =  0.813043, 0.813043, 0.000000, [Reduced coords] 
# omega [eV]    RE(eps(q=1)) IM(eps(q=1) RE(eps(q=2) ) ... DOS   IDOS
  0.000   57.6111    3.2906   57.4573    3.5296   57.4719    3.5217   57.5571    3.2815   57.6942    3.5480   57.6844    3.5600   -0.0000   -0.0000
  0.010   57.6117    3.2907   57.4579    3.5297   57.4725    3.5218   57.5577    3.2816   57.6948    3.5481   57.6850    3.5601   -0.0000   -0.0000
  0.020   57.6136    3.2910   57.4597    3.5300   57.4743    3.5221   57.5596    3.2819   57.6967    3.5484   57.6869    3.5604   -0.0000   -0.0000
  0.030   57.6167    3.2916   57.4628    3.5306   57.4774    3.5227   57.5627    3.2825   57.6998    3.5490   57.6900    3.5610   -0.0000   -0.0000
  0.040   57.6210    3.2923   57.4671    3.5314   57.4817    3.5235   57.5670    3.2832   57.7041    3.5498   57.6943    3.5618   -0.0000   -0.0000
  0.050   57.6266    3.2933   57.4726    3.5324   57.4872    3.5245   57.5726    3.2842   57.7097    3.5508   57.6999    3.5629   -0.0000   -0.0000
  0.060   57.6334    3.2944   57.4794    3.5336   57.4940    3.5257   57.5794    3.2854   57.7165    3.5521   57.7067    3.5641   -0.0000   -0.0000
  0.070   57.6414    3.2958   57.4874    3.5351   57.5020    3.5272   57.5874    3.2867   57.7246    3.5536   57.7148    3.5656   -0.0000   -0.0000
  0.080   57.6507    3.2974   57.4966    3.5368   57.5112    3.5289   57.5967    3.2884   57.7339    3.5553   57.7241    3.5673   -0.0000   -0.0000
  0.090   57.6613    3.2993   57.5070    3.5387   57.5216    3.5308   57.6072    3.2902   57.7445    3.5573   57.7347    3.5693   -0.0000   -0.0000
  0.100   57.6730    3.3013   57.5187    3.5409   57.5333    3.5330   57.6190    3.2922   57.7563    3.5595   57.7465    3.5715   -0.0000   -0.0000
  0.110   57.6861    3.3036   57.5316    3.5432   57.5462    3.5353   57.6320    3.2945   57.7694    3.5619   57.7596    3.5739   -0.0000   -0.0000
  0.120   57.7003    3.3060   57.5458    3.5458   57.5604    3.5379   57.6462    3.2969   57.7837    3.5645   57.7739    3.5765   -0.0000   -0.0000
  0.130   57.7159    3.3087   57.5612    3.5487   57.5758    3.5408   57.6617    3.2996   57.7993    3.5674   57.7895    3.5794   -0.0000   -0.0000
  0.140   57.7326    3.3116   57.5778    3.5517   57.5924    3.5438   57.6785    3.3025   57.8161    3.5705   57.8063    3.5825   -0.0000   -0.0000
  0.150   57.7506    3.3148   57.5957    3.5550   57.6103    3.5471   57.6965    3.3057   57.8342    3.5738   57.8244    3.5859   -0.0000   -0.0000
  0.160   57.7699    3.3181   57.6148    3.5585   57.6294    3.5506   57.7158    3.3090   57.8535    3.5774   57.8437    3.5894   -0.0000   -0.0000
  0.170   57.7905    3.3217   57.6352    3.5623   57.6498    3.5544   57.7363    3.3126   57.8741    3.5812   57.8643    3.5933   -0.0000   -0.0000
  0.180   57.8123    3.3255   57.6568    3.5663   57.6714    3.5584   57.7581    3.3164   57.8960    3.5853   57.8862    3.5973   -0.0000   -0.0000
  0.190   57.8353    3.3295   57.6797    3.5705   57.6943    3.5626   57.7811    3.3204   57.9191    3.5896   57.9093    3.6016   -0.0000   -0.0000
  0.200   57.8597    3.3337   57.7038    3.5750   57.7185    3.5670   57.8054    3.3246   57.9435    3.5941   57.9337    3.6061   -0.0000   -0.0000
  0.210   57.8853    3.3381   57.7292    3.5797   57.7439    3.5717   57.8310    3.3291   57.9692    3.5989   57.9594    3.6109   -0.0000   -0.0000
  0.220   57.9121    3.3428   57.7558    3.5846   57.7705    3.5767   57.8578    3.3338   57.9962    3.6039   57.9864    3.6159   -0.0000   -0.0000
  0.230   57.9403    3.3477   57.7838    3.5897   57.7984    3.5818   57.8860    3.3387   58.0244    3.6091   58.0146    3.6212   -0.0000   -0.0000
  0.240   57.9697    3.3529   57.8130    3.5951   57.8276    3.5872   57.9154    3.3438   58.0540    3.6146   58.0441    3.6267   -0.0000   -0.0000
  0.250   58.0005    3.3582   57.8434    3.6008   57.8581    3.5929   57.9461    3.3492   58.0848    3.6204   58.0749    3.6324   -0.0000   -0.0000
  0.260   58.0325    3.3638   57.8752    3.6067   57.8899    3.5987   57.9780    3.3547   58.1169    3.6263   58.1071    3.6384   -0.0000   -0.0000
  0.270   58.0658    3.3696   57.9082    3.6128   57.9229    3.6049   58.0113    3.3606   58.1503    3.6326   58.1405    3.6446   -0.0000   -0.0000
  0.280   58.1004    3.3757   57.9425    3.6192   57.9573    3.6112   58.0459    3.3666   58.1850    3.6390   58.1752    3.6511   -0.0000   -0.0000
  0.290   58.1363    3.3820   57.9781    3.6258   57.9929    3.6179   58.0818    3.3729   58.2211    3.6458   58.2112    3.6578   -0.0000   -0.0000
  0.300   58.1735    3.3885   58.0150    3.6327   58.0298    3.6247   58.1189    3.3794   58.2584    3.6527   58.2485    3.6648   -0.0000   -0.0000
  0.310   58.2121    3.3952   58.0533    3.6398   58.0680    3.6318   58.1574    3.3862   58.2971    3.6600   58.2872    3.6720   -0.0000   -0.0000
  0.320   58.2519    3.4022   58.0928    3.6471   58.1076    3.6392   58.1972    3.3932   58.3370    3.6675   58.3272    3.6795   -0.0000   -0.0000
  0.330   58.2931    3.4095   58.1336    3.6547   58.1484    3.6468   58.2384    3.4004   58.3784    3.6752   58.3685    3.6872   -0.0000   -0.0000
  0.340   58.3356    3.4169   58.1758    3.6626   58.1906    3.6547   58.2808    3.4079   58.4210    3.6832   58.4111    3.6952   -0.0000   -0.0000
  0.350   58.3795    3.4246   58.2193    3.6707   58.2341    3.6628   58.3246    3.4156   58.4650    3.6914   58.4551    3.7035   -0.0000   -0.0000
  0.360   58.4246    3.4326   58.2641    3.6791   58.2789    3.6712   58.3698    3.4236   58.5103    3.7000   58.5004    3.7120   -0.0000   -0.0000
  0.370   58.4712    3.4408   58.3102    3.6878   58.3251    3.6798   58.4163    3.4318   58.5570    3.7088   58.5471    3.7208   -0.0000   -0.0000
  0.380   58.5191    3.4493   58.3577    3.6967   58.3726    3.6887   58.4641    3.4403   58.6051    3.7178   58.5951    3.7299   -0.0000   -0.0000
  0.390   58.5683    3.4580   58.4065    3.7058   58.4214    3.6979   58.5133    3.4490   58.6545    3.7271   58.6445    3.7392   -0.0000   -0.0000
  0.400   58.6190    3.4669   58.4567    3.7153   58.4716    3.7073   58.5639    3.4579   58.7053    3.7367   58.6953    3.7488   -0.0000   -0.0000
  0.410   58.6710    3.4761   58.5083    3.7250   58.5232    3.7170   58.6158    3.4672   58.7574    3.7466   58.7475    3.7586   -0.0000   -0.0000
  0.420   58.7244    3.4856   58.5612    3.7349   58.5762    3.7269   58.6692    3.4766   58.8110    3.7567   58.8010    3.7688   -0.0000   -0.0000
  0.430   58.7791    3.4954   58.6156    3.7452   58.6305    3.7372   58.7239    3.4864   58.8659    3.7671   58.8560    3.7792   -0.0000   -0.0000
  0.440   58.8353    3.5053   58.6713    3.7557   58.6862    3.7477   58.7800    3.4964   58.9223    3.7778   58.9123    3.7899   -0.0000   -0.0000
  0.450   58.8929    3.5156   58.7284    3.7665   58.7433    3.7585   58.8375    3.5066   58.9801    3.7888   58.9701    3.8009   -0.0000   -0.0000
  0.460   58.9519    3.5261   58.7869    3.7776   58.8018    3.7696   58.8965    3.5172   59.0392    3.8000   59.0293    3.8121   -0.0000   -0.0000
  0.470   59.0123    3.5369   58.8468    3.7889   58.8618    3.7809   58.9568    3.5280   59.0999    3.8116   59.0899    3.8237   -0.0000   -0.0000
  0.480   59.0742    3.5480   58.9081    3.8006   58.9231    3.7925   59.0186    3.5390   59.1619    3.8234   59.1519    3.8355   -0.0000   -0.0000
  0.490   59.1375    3.5593   58.9709    3.8125   58.9859    3.8045   59.0819    3.5504   59.2254    3.8356   59.2154    3.8477   -0.0000   -0.0000
  0.500   59.2022    3.5709   59.0351    3.8247   59.0501    3.8167   59.1466    3.5620   59.2904    3.8480   59.2804    3.8601   -0.0000   -0.0000
  0.510   59.2684    3.5828   59.1007    3.8372   59.1158    3.8292   59.2127    3.5739   59.3568    3.8607   59.3468    3.8728   -0.0000   -0.0000
  0.520   59.3361    3.5950   59.1678    3.8500   59.1829    3.8420   59.2803    3.5861   59.4247    3.8737   59.4147    3.8859   -0.0000   -0.0000
  0.530   59.4053    3.6075   59.2364    3.8632   59.2515    3.8551   59.3494    3.5986   59.4941    3.8871   59.4841    3.8992   -0.0000   -0.0000
  0.540   59.4759    3.6202   59.3064    3.8766   59.3216    3.8685   59.4200    3.6114   59.5650    3.9007   59.5549    3.9129   -0.0000   -0.0000
  0.550   59.5481    3.6333   59.3780    3.8903   59.3931    3.8822   59.4921    3.6244   59.6374    3.9147   59.6273    3.9268   -0.0000   -0.0000
  0.560   59.6218    3.6466   59.4510    3.9043   59.4662    3.8963   59.5657    3.6378   59.7113    3.9290   59.7012    3.9411   -0.0000   -0.0000
  0.570   59.6969    3.6603   59.5255    3.9187   59.5407    3.9106   59.6408    3.6514   59.7867    3.9436   59.7766    3.9557   -0.0000   -0.0000
  0.580   59.7737    3.6742   59.6016    3.9334   59.6168    3.9253   59.7174    3.6654   59.8637    3.9585   59.8536    3.9706   -0.0000   -0.0000
  0.590   59.8519    3.6885   59.6792    3.9483   59.6944    3.9403   59.7956    3.6797   59.9422    3.9737   59.9321    3.9859   -0.0000   -0.0000
  0.600   59.9318    3.7030   59.7583    3.9637   59.7736    3.9556   59.8754    3.6942   60.0223    3.9893   60.0122    4.0015   -0.0000   -0.0000
  0.610   60.0132    3.7179   59.8390    3.9793   59.8543    3.9712   59.9567    3.7091   60.1039    4.0052   60.0938    4.0174   -0.0000   -0.0000
  0.620   60.0961    3.7331   59.9213    3.9953   59.9366    3.9872   60.0396    3.7243   60.1872    4.0215   60.1771    4.0336   -0.0000   -0.0000
  0.630   60.1807    3.7486   60.0051    4.0116   60.0204    4.0035   60.1241    3.7399   60.2720    4.0381   60.2619    4.0502   -0.0000   -0.0000
  0.640   60.2669    3.7645   60.0905    4.0282   60.1059    4.0201   60.2102    3.7557   60.3585    4.0550   60.3483    4.0672   -0.0000   -0.0000
  0.650   60.3547    3.7807   60.1775    4.0453   60.1929    4.0371   60.2979    3.7719   60.4465    4.0723   60.4364    4.0845   -0.0000   -0.0000
  0.660   60.4441    3.7972   60.2662    4.0626   60.2816    4.0545   60.3872    3.7885   60.5363    4.0900   60.5261    4.1022   -0.0000   -0.0000
  0.670   60.5352    3.8140   60.3565    4.0803   60.3719    4.0722   60.4782    3.8053   60.6276    4.1080   60.6175    4.1202   -0.0000   -0.0000
  0.680   60.6280    3.8312   60.4484    4.0984   60.4639    4.0902   60.5709    3.8225   60.7207    4.1264   60.7105    4.1386   -0.0000   -0.0000
  0.690   60.7224    3.8487   60.5420    4.1168   60.5575    4.1087   60.6652    3.8401   60.8154    4.1451   60.8052    4.1573   -0.0000   -0.0000
  0.700   60.8185    3.8666   60.6373    4.1356   60.6528    4.1275   60.7613    3.8580   60.9118    4.1643   60.9017    4.1765   -0.0000   -0.0000
  0.710   60.9163    3.8849   60.7342    4.1548   60.7498    4.1466   60.8590    3.8763   61.0100    4.1838   60.9998    4.1960   -0.0000   -0.0000
  0.720   61.0159    3.9035   60.8329    4.1743   60.8484    4.1662   60.9584    3.8949   61.1099    4.2037   61.0996    4.2159   -0.0000   -0.0000
  0.730   61.1171    3.9225   60.9333    4.1943   60.9489    4.1861   61.0596    3.9139   61.2115    4.2240   61.2012    4.2362   -0.0000   -0.0000
  0.740   61.2202    3.9418   61.0354    4.2146   61.0510    4.2065   61.1626    3.9333   61.3148    4.2447   61.3046    4.2569   -0.0000   -0.0000
  0.750   61.3250    3.9616   61.1392    4.2354   61.1549    4.2272   61.2673    3.9531   61.4200    4.2658   61.4097    4.2780   -0.0000   -0.0000
  0.760   61.4316    3.9817   61.2449    4.2565   61.2606    4.2483   61.3738    3.9732   61.5269    4.2873   61.5167    4.2995   -0.0000   -0.0000
  0.770   61.5400    4.0022   61.3523    4.2780   61.3680    4.2698   61.4821    3.9937   61.6357    4.3092   61.6254    4.3215   -0.0000   -0.0000
  0.780   61.6502    4.0231   61.4616    4.3000   61.4773    4.2918   61.5922    4.0147   61.7463    4.3316   61.7360    4.3438   -0.0000   -0.0000
  0.790   61.7623    4.0444   61.5726    4.3224   61.5884    4.3141   61.7042    4.0360   61.8587    4.3544   61.8484    4.3666   -0.0000   -0.0000
  0.800   61.8762    4.0661   61.6855    4.3452   61.7013    4.3369   61.8180    4.0578   61.9730    4.3776   61.9627    4.3898   -0.0000   -0.0000
  0.810   61.9921    4.0883   61.8003    4.3684   61.8161    4.3602   61.9338    4.0799   62.0892    4.4012   62.0789    4.4135   -0.0000   -0.0000
  0.820   62.1098    4.1108   61.9169    4.3921   61.9328    4.3838   62.0514    4.1025   62.2073    4.4254   62.1970    4.4376   -0.0000   -0.0000
  0.830   62.2294    4.1338   62.0355    4.4162   62.0514    4.4079   62.1709    4.1255   62.3273    4.4499   62.3170    4.4622   -0.0000   -0.0000
  0.840   62.3510    4.1572   62.1559    4.4408   62.1719    4.4325   62.2924    4.1490   62.4493    4.4750   62.4390    4.4872   -0.0000   -0.0000
  0.850   62.4745    4.1811   62.2783    4.4658   62.2943    4.4575   62.4158    4.1729   62.5732    4.5005   62.5629    4.5127   -0.0000   -0.0000
  0.860   62.6000    4.2054   62.4027    4.4913   62.4187    4.4830   62.5412    4.1972   62.6992    4.5264   62.6888    4.5387   -0.0000   -0.0000
  0.870   62.7275    4.2302   62.5290    4.5173   62.5451    4.5090   62.6686    4.2220   62.8271    4.5529   62.8167    4.5652   -0.0000   -0.0000
  0.880   62.8571    4.2554   62.6574    4.5438   62.6734    4.5355   62.7980    4.2473   62.9571    4.5799   62.9467    4.5922   -0.0000   -0.0000
  0.890   62.9887    4.2811   62.7877    4.5707   62.8039    4.5624   62.9295    4.2730   63.0891    4.6073   63.0787    4.6196   -0.0000   -0.0000
  0.900   63.1223    4.3073   62.9202    4.5982   62.9363    4.5899   63.0631    4.2992   63.2232    4.6353   63.2128    4.6476   -0.0000   -0.0000
  0.910   63.2581    4.3339   63.0546    4.6262   63.0708    4.6178   63.1987    4.3259   63.3594    4.6638   63.3489    4.6761   -0.0000   -0.0000
  0.920   63.3960    4.3611   63.1912    4.6546   63.2075    4.6463   63.3365    4.3532   63.4977    4.6929   63.4873    4.7051   -0.0000   -0.0000
  0.930   63.5360    4.3888   63.3299    4.6837   63.3462    4.6753   63.4764    4.3809   63.6382    4.7224   63.6277    4.7347   -0.0000   -0.0000
  0.940   63.6782    4.4170   63.4708    4.7132   63.4871    4.7049   63.6185    4.4091   63.7808    4.7526   63.7704    4.7648   -0.0000   -0.0000
  0.950   63.8226    4.4457   63.6138    4.7433   63.6301    4.7350   63.7627    4.4379   63.9257    4.7832   63.9152    4.7955   -0.0000   -0.0000
  0.960   63.9692    4.4749   63.7590    4.7740   63.7754    4.7656   63.9092    4.4672   64.0728    4.8145   64.0623    4.8268   -0.0000   -0.0000
  0.970   64.1180    4.5047   63.9064    4.8052   63.9229    4.7968   64.0580    4.4970   64.2221    4.8463   64.2116    4.8586   -0.0000   -0.0000
  0.980   64.2691    4.5350   64.0561    4.8370   64.0726    4.8286   64.2090    4.5274   64.3737    4.8787   64.3632    4.8910   -0.0000   -0.0000
  0.990   64.4226    4.5659   64.2081    4.8694   64.2246    4.8610   64.3623    4.5583   64.5277    4.9117   64.5171    4.9240   -0.0000   -0.0000
  1.000   64.5783    4.5974   64.3624    4.9023   64.3789    4.8939   64.5179    4.5899   64.6839    4.9453   64.6734    4.9577   -0.0000   -0.0000
  1.010   64.7365    4.6295   64.5190    4.9359   64.5356    4.9275   64.6759    4.6220   64.8426    4.9796   64.8320    4.9919   -0.0000   -0.0000
  1.020   64.8970    4.6621   64.6779    4.9701   64.6946    4.9617   64.8363    4.6547   65.0036    5.0145   64.9931    5.0268   -0.0000   -0.0000
  1.030   65.0599    4.6954   64.8393    5.0049   64.8560    4.9965   64.9991    4.6880   65.1671    5.0500   65.1565    5.0623   -0.0000   -0.0000
  1.040   65.2253    4.7292   65.0031    5.0404   65.0198    5.0320   65.1644    4.7219   65.3330    5.0862   65.3224    5.0985   -0.0000   -0.0000
  1.050   65.3932    4.7637   65.1693    5.0765   65.1861    5.0681   65.3322    4.7565   65.5015    5.1230   65.4909    5.1353   -0.0000   -0.0000
  1.060   65.5636    4.7989   65.3381    5.1133   65.3549    5.1049   65.5025    4.7917   65.6724    5.1606   65.6618    5.1729   -0.0000   -0.0000
  1.070   65.7366    4.8347   65.5093    5.1508   65.5262    5.1424   65.6753    4.8276   65.8460    5.1988   65.8353    5.2111   -0.0000   -0.0000
  1.080   65.9121    4.8711   65.6831    5.1890   65.7000    5.1805   65.8507    4.8641   66.0221    5.2377   66.0114    5.2501   -0.0000   -0.0000
  1.090   66.0903    4.9083   65.8595    5.2279   65.8765    5.2194   66.0288    4.9014   66.2008    5.2774   66.1902    5.2897   -0.0000   -0.0000
  1.100   66.2711    4.9461   66.0386    5.2675   66.0555    5.2590   66.2095    4.9393   66.3823    5.3178   66.3716    5.3301   -0.0000   -0.0000
  1.110   66.4546    4.9847   66.2202    5.3078   66.2373    5.2993   66.3929    4.9779   66.5664    5.3590   66.5557    5.3713   -0.0000   -0.0000
  1.120   66.6409    5.0239   66.4046    5.3489   66.4217    5.3404   66.5790    5.0172   66.7532    5.4009   66.7425    5.4132   -0.0000   -0.0000
  1.130   66.8299    5.0639   66.5918    5.3907   66.6089    5.3822   66.7679    5.0573   66.9429    5.4436   66.9322    5.4559   -0.0000   -0.0000
  1.140   67.0217    5.1047   66.7817    5.4334   66.7988    5.4248   66.9596    5.0982   67.1354    5.4872   67.1246    5.4995   -0.0000   -0.0000
  1.150   67.2164    5.1462   66.9744    5.4768   66.9916    5.4682   67.1542    5.1398   67.3307    5.5315   67.3199    5.5438   -0.0000   -0.0000
  1.160   67.4140    5.1885   67.1699    5.5210   67.1872    5.5125   67.3516    5.1822   67.5289    5.5767   67.5182    5.5890   -0.0000   -0.0000
  1.170   67.6145    5.2316   67.3684    5.5661   67.3857    5.5575   67.5520    5.2254   67.7301    5.6227   67.7193    5.6350   -0.0000   -0.0000
  1.180   67.8180    5.2755   67.5698    5.6120   67.5872    5.6034   67.7554    5.2695   67.9342    5.6696   67.9235    5.6819   -0.0000   -0.0000
  1.190   68.0245    5.3203   67.7742    5.6588   67.7916    5.6502   67.9618    5.3143   68.1414    5.7174   68.1307    5.7297   -0.0000   -0.0000
  1.200   68.2341    5.3659   67.9816    5.7065   67.9991    5.6979   68.1712    5.3601   68.3517    5.7661   68.3409    5.7783   -0.0000   -0.0000
  1.210   68.4468    5.4124   68.1921    5.7550   68.2096    5.7464   68.3838    5.4067   68.5651    5.8157   68.5543    5.8280   -0.0000   -0.0000
  1.220   68.6626    5.4598   68.4057    5.8045   68.4233    5.7959   68.5995    5.4542   68.7817    5.8663   68.7709    5.8785   -0.0000   -0.0000
  1.230   68.8817    5.5081   68.6225    5.8550   68.6401    5.8464   68.8185    5.5026   69.0015    5.9178   68.9906    5.9301   -0.0000   -0.0000
  1.240   69.1040    5.5573   68.8425    5.9064   68.8602    5.8977   69.0407    5.5519   69.2245    5.9703   69.2137    5.9826   -0.0000   -0.0000
  1.250   69.3296    5.6075   69.0657    5.9588   69.0835    5.9501   69.2662    5.6022   69.4509    6.0239   69.4401    6.0361   -0.0000   -0.0000
  1.260   69.5586    5.6586   69.2923    6.0122   69.3101    6.0035   69.4951    5.6535   69.6806    6.0785   69.6698    6.0907   -0.0000   -0.0000
  1.270   69.7910    5.7107   69.5222    6.0666   69.5401    6.0579   69.7274    5.7058   69.9138    6.1341   69.9030    6.1463   -0.0000   -0.0000
  1.280   70.0269    5.7639   69.7556    6.1221   69.7735    6.1134   69.9631    5.7591   70.1505    6.1908   70.1396    6.2031   -0.0000   -0.0000
  1.290   70.2663    5.8181   69.9924    6.1787   70.0104    6.1700   70.2024    5.8135   70.3907    6.2487   70.3798    6.2609   -0.0000   -0.0000
  1.300   70.5093    5.8734   70.2328    6.2363   70.2508    6.2276   70.4453    5.8689   70.6345    6.3076   70.6236    6.3198   -0.0000   -0.0000
  1.310   70.7560    5.9297   70.4767    6.2951   70.4949    6.2864   70.6918    5.9254   70.8819    6.3678   70.8710    6.3800   -0.0000   -0.0000
  1.320   71.0063    5.9872   70.7243    6.3551   70.7425    6.3464   70.9420    5.9830   71.1331    6.4291   71.1222    6.4413   -0.0000   -0.0000
  1.330   71.2604    6.0458   70.9757    6.4162   70.9939    6.4075   71.1960    6.0418   71.3880    6.4916   71.3771    6.5038   -0.0000   -0.0000
  1.340   71.5183    6.1056   71.2308    6.4786   71.2490    6.4698   71.4538    6.1018   71.6468    6.5554   71.6359    6.5676   -0.0000   -0.0000
  1.350   71.7801    6.1666   71.4897    6.5421   71.5080    6.5334   71.7155    6.1630   71.9094    6.6205   71.8985    6.6326   -0.0000   -0.0000
  1.360   72.0459    6.2288   71.7525    6.6070   71.7709    6.5982   71.9812    6.2254   72.1761    6.6868   72.1652    6.6990   -0.0000   -0.0000
  1.370   72.3157    6.2923   72.0193    6.6731   72.0378    6.6644   72.2509    6.2891   72.4468    6.7545   72.4358    6.7667   -0.0000   -0.0000
  1.380   72.5896    6.3570   72.2901    6.7406   72.3086    6.7319   72.5247    6.3540   72.7216    6.8236   72.7106    6.8357   -0.0000   -0.0000
  1.390   72.8676    6.4231   72.5650    6.8095   72.5836    6.8007   72.8026    6.4204   73.0005    6.8941   72.9896    6.9062   -0.0000   -0.0000
  1.400   73.1499    6.4906   72.8441    6.8797   72.8628    6.8709   73.0848    6.4880   73.2838    6.9660   73.2728    6.9781   -0.0000   -0.0000
  1.410   73.4366    6.5594   73.1275    6.9514   73.1462    6.9426   73.3714    6.5571   73.5713    7.0394   73.5604    7.0515   -0.0000   -0.0000
  1.420   73.7276    6.6296   73.4152    7.0246   73.4340    7.0157   73.6623    6.6276   73.8633    7.1143   73.8523    7.1264   -0.0000   -0.0000
  1.430   74.0230    6.7014   73.7073    7.0992   73.7261    7.0904   73.9577    6.6995   74.1597    7.1908   74.1488    7.2028   -0.0000   -0.0000
  1.440   74.3231    6.7746   74.0038    7.1754   74.0228    7.1666   74.2576    6.7730   74.4607    7.2689   74.4498    7.2809   -0.0000   -0.0000
  1.450   74.6277    6.8493   74.3050    7.2532   74.3240    7.2444   74.5622    6.8480   74.7664    7.3486   74.7555    7.3605   -0.0000   -0.0000
  1.460   74.9371    6.9256   74.6107    7.3326   74.6298    7.3238   74.8715    6.9246   75.0768    7.4299   75.0659    7.4419   -0.0000   -0.0000
  1.470   75.2513    7.0036   74.9212    7.4137   74.9404    7.4048   75.1857    7.0029   75.3920    7.5130   75.3811    7.5250   -0.0000   -0.0000
  1.480   75.5704    7.0832   75.2366    7.4965   75.2558    7.4876   75.5047    7.0828   75.7122    7.5979   75.7012    7.6098   -0.0000   -0.0000
  1.490   75.8945    7.1645   75.5568    7.5811   75.5761    7.5722   75.8287    7.1644   76.0373    7.6846   76.0264    7.6965   -0.0000   -0.0000
  1.500   76.2237    7.2476   75.8821    7.6674   75.9014    7.6585   76.1578    7.2478   76.3676    7.7731   76.3566    7.7850   -0.0000   -0.0000
  1.510   76.5581    7.3324   76.2124    7.7556   76.2319    7.7467   76.4922    7.3330   76.7030    7.8636   76.6921    7.8754   -0.0000   -0.0000
  1.520   76.8978    7.4191   76.5480    7.8458   76.5675    7.8368   76.8318    7.4200   77.0438    7.9560   77.0329    7.9678   -0.0000   -0.0000
  1.530   77.2428    7.5078   76.8888    7.9378   76.9084    7.9289   77.1768    7.5090   77.3899    8.0505   77.3790    8.0622   -0.0000   -0.0000
  1.540   77.5933    7.5983   77.2351    8.0319   77.2547    8.0230   77.5273    7.5999   77.7416    8.1470   77.7307    8.1587   -0.0000   -0.0000
  1.550   77.9495    7.6909   77.5869    8.1281   77.6066    8.1191   77.8834    7.6929   78.0989    8.2456   78.0880    8.2573   -0.0000   -0.0000
  1.560   78.3113    7.7855   77.9442    8.2263   77.9640    8.2174   78.2452    7.7880   78.4619    8.3465   78.4511    8.3581   -0.0000   -0.0000
  1.570   78.6790    7.8823   78.3074    8.3268   78.3272    8.3178   78.6129    7.8851   78.8308    8.4496   78.8199    8.4612   -0.0000   -0.0000
  1.580   79.0527    7.9813   78.6763    8.4295   78.6963    8.4205   78.9865    7.9845   79.2056    8.5550   79.1948    8.5666   -0.0000   -0.0000
  1.590   79.4324    8.0825   79.0512    8.5345   79.0713    8.5255   79.3662    8.0862   79.5865    8.6628   79.5757    8.6744   -0.0000   -0.0000
  1.600   79.8183    8.1860   79.4323    8.6419   79.4524    8.6329   79.7521    8.1901   79.9736    8.7731   79.9629    8.7846   -0.0000   -0.0000
  1.610   80.2105    8.2919   79.8195    8.7517   79.8397    8.7427   80.1443    8.2965   80.3671    8.8859   80.3564    8.8974   -0.0000   -0.0000
  1.620   80.6092    8.4002   80.2131    8.8641   80.2333    8.8551   80.5430    8.4054   80.7671    9.0014   80.7563    9.0128   -0.0000   -0.0000
  1.630   81.0145    8.5111   80.6131    8.9790   80.6334    8.9700   80.9484    8.5167   81.1736    9.1194   81.1629    9.1308   -0.0000   -0.0000
  1.640   81.4265    8.6246   81.0198    9.0966   81.0402    9.0876   81.3604    8.6307   81.5869    9.2403   81.5763    9.2516   -0.0000   -0.0000
  1.650   81.8455    8.7407   81.4332    9.2170   81.4537    9.2080   81.7793    8.7475   82.0071    9.3640   81.9965    9.3753   -0.0000   -0.0000
  1.660   82.2714    8.8596   81.8535    9.3402   81.8741    9.3312   82.2053    8.8669   82.4344    9.4907   82.4238    9.5019   -0.0000   -0.0000
  1.670   82.7045    8.9814   82.2809    9.4663   82.3015    9.4573   82.6385    8.9893   82.8688    9.6203   82.8583    9.6315   -0.0000   -0.0000
  1.680   83.1449    9.1061   82.7154    9.5954   82.7362    9.5864   83.0790    9.1146   83.3106    9.7531   83.3001    9.7642   -0.0000   -0.0000
  1.690   83.5929    9.2338   83.1573    9.7276   83.1782    9.7186   83.5270    9.2430   83.7599    9.8891   83.7495    9.9001   -0.0000   -0.0000
  1.700   84.0485    9.3646   83.6068    9.8630   83.6277    9.8540   83.9827    9.3745   84.2169   10.0284   84.2065   10.0394   -0.0000   -0.0000
  1.710   84.5120    9.4987   84.0639   10.0017   84.0849    9.9927   84.4463    9.5093   84.6818   10.1712   84.6714   10.1821   -0.0000   -0.0000
  1.720   84.9834    9.6361   84.5289   10.1438   84.5500   10.1348   84.9179    9.6474   85.1547   10.3174   85.1444   10.3283   -0.0000   -0.0000
  1.730   85.4631    9.7769   85.0019   10.2895   85.0231   10.2804   85.3977    9.7890   85.6358   10.4674   85.6255   10.4781   -0.0000   -0.0000
  1.740   85.9512    9.9213   85.4832   10.4387   85.5044   10.4297   85.8859    9.9341   86.1253   10.6210   86.1151   10.6317   -0.0000   -0.0000
  1.750   86.4479   10.0693   85.9729   10.5917   85.9942   10.5827   86.3827   10.0830   86.6234   10.7786   86.6133   10.7892   -0.0000   -0.0000
  1.760   86.9533   10.2211   86.4712   10.7486   86.4926   10.7395   86.8884   10.2356   87.1303   10.9402   87.1203   10.9507   -0.0000   -0.0000
  1.770   87.4678   10.3768   86.9783   10.9094   86.9998   10.9004   87.4030   10.3923   87.6463   11.1059   87.6363   11.1164   -0.0000   -0.0000
  1.780   87.9914   10.5366   87.4944   11.0744   87.5160   11.0654   87.9268   10.5529   88.1714   11.2760   88.1615   11.2863   -0.0000   -0.0000
  1.790   88.5245   10.7006   88.0197   11.2437   88.0414   11.2347   88.4601   10.7178   88.7060   11.4505   88.6962   11.4607   -0.0000   -0.0000
  1.800   89.0672   10.8688   88.5546   11.4174   88.5763   11.4083   89.0031   10.8871   89.2503   11.6295   89.2405   11.6397   -0.0000   -0.0000
  1.810   89.6199   11.0416   89.0991   11.5956   89.1209   11.5866   89.5560   11.0609   89.8045   11.8133   89.7948   11.8234   -0.0000   -0.0000
  1.820   90.1827   11.2189   89.6535   11.7786   89.6754   11.7696   90.1191   11.2394   90.3689   12.0021   90.3592   12.0120   -0.0000   -0.0000
  1.830   90.7558   11.4011   90.2181   11.9664   90.2401   11.9574   90.6925   11.4227   90.9436   12.1959   90.9341   12.2057   -0.0000   -0.0000
  1.840   91.3397   11.5883   90.7931   12.1594   90.8152   12.1503   91.2767   11.6110   91.5290   12.3950   91.5196   12.4047   -0.0000   -0.0000
  1.850   91.9344   11.7805   91.3788   12.3575   91.4010   12.3485   91.8718   11.8045   92.1253   12.5995   92.1160   12.6091   -0.0000   -0.0000
  1.860   92.5404   11.9781   91.9755   12.5611   91.9977   12.5521   92.4781   12.0033   92.7329   12.8097   92.7237   12.8192   -0.0000   -0.0000
  1.870   93.1578   12.1813   92.5833   12.7703   92.6057   12.7613   93.0959   12.2078   93.3519   13.0258   93.3429   13.0351   -0.0000   -0.0000
  1.880   93.7870   12.3901   93.2027   12.9854   93.2252   12.9764   93.7255   12.4180   93.9827   13.2479   93.9738   13.2572   -0.0000   -0.0000
  1.890   94.4283   12.6049   93.8339   13.2065   93.8565   13.1975   94.3673   12.6343   94.6256   13.4764   94.6169   13.4855   -0.0000   -0.0000
  1.900   95.0820   12.8259   94.4773   13.4338   94.4999   13.4248   95.0214   12.8568   95.2810   13.7114   95.2723   13.7203   -0.0000   -0.0000
  1.910   95.7485   13.0533   95.1330   13.6677   95.1558   13.6587   95.6884   13.0857   95.9491   13.9531   95.9406   13.9620   -0.0000   -0.0000
  1.920   96.4280   13.2873   95.8016   13.9083   95.8244   13.8994   96.3684   13.3214   96.6302   14.2020   96.6219   14.2107   -0.0000   -0.0000
  1.930   97.1210   13.5282   96.4832   14.1560   96.5061   14.1470   97.0619   13.5640   97.3248   14.4582   97.3166   14.4667   -0.0000   -0.0000
  1.940   97.8277   13.7763   97.1783   14.4109   97.2013   14.4020   97.7693   13.8139   98.0332   14.7219   98.0252   14.7303   -0.0000   -0.0000
  1.950   98.5487   14.0318   97.8873   14.6734   97.9104   14.6645   98.4908   14.0713   98.7557   14.9936   98.7479   15.0018   -0.0000   -0.0000
  1.960   99.2842   14.2952   98.6104   14.9438   98.6336   14.9349   99.2270   14.3366   99.4928   15.2735   99.4852   15.2816   -0.0001   -0.0000
  1.970  100.0347   14.5665   99.3482   15.2223   99.3715   15.2134   99.9782   14.6100  100.2449   15.5620  100.2375   15.5699   -0.0001   -0.0000
  1.980  100.8006   14.8463  100.1010   15.5094  100.1243   15.5005  100.7448   14.8919  101.0124   15.8594  101.0052   15.8671   -0.0001   -0.0000
  1.990  101.5823   15.1348  100.8692   15.8054  100.8926   15.7965  101.5273   15.1827  101.7956   16.1660  101.7887   16.1735   -0.0001   -0.0000
  2.000  102.3803   15.4324  101.6533   16.1105  101.6768   16.1017  102.3261   15.4826  102.5952   16.4823  102.5885   16.4896   -0.0001   -0.0000
  2.010  103.1951   15.7395  102.4537   16.4253  102.4772   16.4164  103.1417   15.7922  103.4114   16.8087  103.4050   16.8158   -0.0001   -0.0000
  2.020  104.0271   16.0565  103.2708   16.7501  103.2945   16.7412  103.9746   16.1118  104.2449   17.1456  104.2388   17.1524   -0.0002   -0.0000
  2.030  104.8769   16.3839  104.1053   17.0853  104.1290   17.0765  104.8253   16.4418  105.0961   17.4934  105.0903   17.5000   -0.0002   -0.0000
  2.040  105.7449   16.7219  104.9576   17.4314  104.9814   17.4226  105.6944   16.7826  105.9656   17.8526  105.9600   17.8590   -0.0002   -0.0000
  2.050  106.6318   17.0712  105.8281   17.7888  105.8520   17.7801  106.5823   17.1349  106.8538   18.2237  106.8486   18.2299   -0.0003   -0.0000
  2.060  107.5381   17.4323  106.7176   18.1581  106.7415   18.1494  107.4897   17.4990  107.7614   18.6072  107.7565   18.6132   -0.0003   -0.0000
  2.070  108.4644   17.8055  107.6264   18.5398  107.6505   18.5311  108.4171   17.8756  108.6889   19.0038  108.6843   19.0094   -0.0004   -0.0000
  2.080  109.4112   18.1916  108.5553   18.9344  108.5794   18.9257  109.3651   18.2650  109.6369   19.4139  109.6327   19.4193   -0.0004   -0.0000
  2.090  110.3793   18.5911  109.5048   19.3425  109.5289   19.3339  110.3345   18.6681  110.6061   19.8382  110.6023   19.8433   -0.0005   -0.0000
  2.100  111.3693   19.0046  110.4755   19.7648  110.4998   19.7561  111.3258   19.0854  111.5971   20.2773  111.5937   20.2822   -0.0006   -0.0000
  2.110  112.3819   19.4328  111.4682   20.2018  111.4925   20.1932  112.3398   19.5175  112.6105   20.7320  112.6076   20.7366   -0.0007   -0.0000
  2.120  113.4178   19.8763  112.4835   20.6543  112.5078   20.6457  113.3771   19.9651  113.6472   21.2030  113.6447   21.2073   -0.0008   -0.0000
  2.130  114.4778   20.3359  113.5221   21.1230  113.5465   21.1145  114.4386   20.4291  114.7078   21.6910  114.7058   21.6950   -0.0009   -0.0000
  2.140  115.5625   20.8124  114.5847   21.6087  114.6092   21.6002  115.5249   20.9102  115.7931   22.1969  115.7916   22.2006   -0.0010   -0.0000
  2.150  116.6729   21.3066  115.6722   22.1122  115.6967   22.1037  116.6370   21.4092  116.9038   22.7216  116.9029   22.7249   -0.0012   -0.0000
  2.160  117.8098   21.8194  116.7853   22.6344  116.8098   22.6259  117.7756   21.9270  118.0409   23.2660  118.0406   23.2689   -0.0014   -0.0000
  2.170  118.9740   22.3517  117.9249   23.1761  117.9494   23.1677  118.9416   22.4647  119.2051   23.8310  119.2054   23.8336   -0.0016   -0.0000
  2.180  120.1665   22.9045  119.0918   23.7385  119.1164   23.7301  120.1359   23.0231  120.3973   24.4177  120.3983   24.4199   -0.0019   -0.0000
  2.190  121.3881   23.4788  120.2869   24.3225  120.3115   24.3141  121.3595   23.6033  121.6185   25.0272  121.6201   25.0291   -0.0022   -0.0000
  2.200  122.6400   24.0758  121.5112   24.9292  121.5358   24.9209  122.6134   24.2066  122.8696   25.6608  122.8720   25.6623   -0.0026   -0.0000
  2.210  123.9230   24.6967  122.7656   25.5598  122.7903   25.5516  123.8986   24.8341  124.1517   26.3196  124.1548   26.3207   -0.0030   -0.0000
  2.220  125.2384   25.3427  124.0513   26.2156  124.0759   26.2074  125.2162   25.4870  125.4657   27.0050  125.4697   27.0057   -0.0034   -0.0000
  2.230  126.5871   26.0152  125.3691   26.8979  125.3937   26.8898  126.5672   26.1669  126.8127   27.7185  126.8176   27.7187   -0.0040   -0.0000
  2.240  127.9704   26.7156  126.7202   27.6082  126.7448   27.6001  127.9529   26.8751  128.1940   28.4616  128.1997   28.4613   -0.0046   -0.0000
  2.250  129.3894   27.4456  128.1058   28.3480  128.1304   28.3399  129.3744   27.6133  129.6105   29.2358  129.6173   29.2351   -0.0052   -0.0000
  2.260  130.8454   28.2066  129.5270   29.1188  129.5515   29.1108  130.8330   28.3830  131.0636   30.0430  131.0714   30.0419   -0.0060   -0.0000
  2.270  132.3398   29.0006  130.9851   29.9225  131.0096   29.9145  132.3301   29.1862  132.5545   30.8850  132.5634   30.8834   -0.0070   -0.0000
  2.280  133.8739   29.8294  132.4814   30.7609  132.5058   30.7530  133.8669   30.0248  134.0845   31.7639  134.0945   31.7617   -0.0080   -0.0000
  2.290  135.4490   30.6950  134.0172   31.6361  134.0415   31.6282  135.4449   30.9007  135.6549   32.6816  135.6662   32.6790   -0.0092   -0.0000
  2.300  137.0668   31.5996  135.5939   32.5501  135.6181   32.5422  137.0656   31.8163  137.2672   33.6407  137.2798   33.6375   -0.0106   -0.0000
  2.310  138.7286   32.5456  137.2128   33.5052  137.2370   33.4974  138.7304   32.7739  138.9228   34.6434  138.9369   34.6397   -0.0121   -0.0000
  2.320  140.4361   33.5354  138.8756   34.5040  138.8996   34.4962  140.4411   33.7760  140.6233   35.6925  140.6388   35.6883   -0.0140   -0.0000
  2.330  142.1909   34.5717  140.5838   35.5490  140.6076   35.5413  142.1991   34.8255  142.3701   36.7908  142.3872   36.7860   -0.0161   -0.0000
  2.340  143.9949   35.6576  142.3389   36.6432  142.3626   36.6354  144.0063   35.9253  144.1649   37.9413  144.1837   37.9360   -0.0185   -0.0001
  2.350  145.8496   36.7960  144.1426   37.7895  144.1661   37.7818  145.8644   37.0785  146.0094   39.1474  146.0300   39.1415   -0.0214   -0.0001
  2.360  147.7570   37.9904  145.9967   38.9913  146.0200   38.9836  147.7752   38.2887  147.9052   40.4125  147.9277   40.4061   -0.0248   -0.0001
  2.370  149.7189   39.2443  147.9028   40.2521  147.9259   40.2444  149.7406   39.5595  149.8541   41.7406  149.8787   41.7336   -0.0289   -0.0001
  2.380  151.7374   40.5618  149.8628   41.5758  149.8856   41.5681  151.7625   40.8949  151.8579   43.1357  151.8847   43.1282   -0.0338   -0.0001
  2.390  153.8144   41.9471  151.8786   42.9665  151.9011   42.9588  153.8430   42.2994  153.9184   44.6024  153.9476   44.5942   -0.0398   -0.0001
  2.400  155.9520   43.4048  153.9521   44.4288  153.9743   44.4210  155.9840   43.7775  156.0376   46.1454  156.0693   46.1367   -0.0472   -0.0001
  2.410  158.1523   44.9399  156.0852   45.9674  156.1070   45.9596  158.1878   45.3344  158.2173   47.7699  158.2516   47.7607   -0.0565   -0.0001
  2.420  160.4175   46.5578  158.2798   47.5876  158.3013   47.5797  160.4563   46.9756  160.4593   49.4817  160.4965   49.4720   -0.0684   -0.0002
  2.430  162.7498   48.2644  160.5381   49.2952  160.5591   49.2872  162.7918   48.7071  162.7657   51.2869  162.8060   51.2767   -0.0837   -0.0002
  2.440  165.1514   50.0660  162.8621   51.0962  162.8826   51.0882  165.1965   50.5353  165.1383   53.1921  165.1819   53.1814   -0.1036   -0.0002
  2.450  167.6246   51.9695  165.2536   52.9975  165.2736   52.9893  167.6724   52.4675  167.5790   55.2047  167.6261   55.1935   -0.1297   -0.0003
  2.460  170.1714   53.9826  167.7148   55.0063  167.7343   54.9979  170.2219   54.5113  170.0897   57.3324  170.1405   57.3209   -0.1642   -0.0003
  2.470  172.7943   56.1135  170.2476   57.1306  170.2664   57.1220  172.8469   56.6751  172.6719   59.5839  172.7269   59.5721   -0.2098   -0.0004
  2.480  175.4952   58.3712  172.8539   59.3791  172.8720   59.3702  175.5495   58.9680  175.3275   61.9684  175.3867   61.9564   -0.2705   -0.0005
  2.490  178.2763   60.7654  175.5354   61.7611  175.5528   61.7520  178.3317   61.4001  178.0578   64.4963  178.1217   64.4841   -0.3510   -0.0007
  2.500  181.1394   63.3068  178.2939   64.2870  178.3105   64.2775  181.1953   63.9823  180.8640   67.1785  180.9330   67.1664   -0.4580   -0.0008
  2.510  184.0863   66.0073  181.1306   66.9681  181.1464   66.9582  184.1417   66.7266  183.7472   70.0273  183.8215   70.0153   -0.5996   -0.0010
  2.520  187.1184   68.8795  184.0469   69.8166  184.0617   69.8062  187.1723   69.6461  186.7079   73.0559  186.7881   73.0441   -0.7864   -0.0013
  2.530  190.2368   71.9376  187.0436   72.8460  187.0574   72.8350  190.2880   72.7550  189.7464   76.2787  189.8328   76.2674   -1.0317   -0.0017
  2.540  193.4423   75.1969  190.1211   76.0710  190.1337   76.0593  193.4893   76.0691  192.8622   79.7115  192.9553   79.7011   -1.3521   -0.0022
  2.550  196.7351   78.6743  193.2792   79.5077  193.2906   79.4952  196.7759   79.6056  196.0542   83.3718  196.1545   83.3623   -1.7681   -0.0029
  2.560  200.1145   82.3882  196.5172   83.1738  196.5273   83.1603  200.1470   83.3832  199.3205   87.2784  199.4286   87.2703   -2.3050   -0.0037
  2.570  203.5793   86.3591  199.8334   87.0885  199.8422   87.0738  203.6009   87.4228  202.6580   91.4520  202.7745   91.4456   -2.9928   -0.0048
  2.580  207.1269   90.6092  203.2251   91.2730  203.2325   91.2570  207.1344   91.7470  206.0625   95.9152  206.1879   95.9111   -3.8679   -0.0062
  2.590  210.7535   95.1628  206.6884   95.7505  206.6942   95.7330  210.7432   96.3807  209.5280  100.6928  209.6631  100.6915   -4.9726   -0.0081
  2.600  214.4536  100.0468  210.2177  100.5464  210.2219  100.5271  214.4212  101.3510  213.0466  105.8117  213.1921  105.8139   -6.3564   -0.0104
  2.610  218.2199  105.2906  213.8056  105.6883  213.8081  105.6670  218.1601  106.6878  216.6082  111.3013  216.7649  111.3077   -8.0758   -0.0134
  2.620  222.0423  110.9262  217.4421  111.2066  217.4428  111.1830  221.9489  112.4237  220.1997  117.1935  220.3683  117.2051  -10.1946   -0.0171
  2.630  225.9077  116.9886  221.1147  117.1344  221.1136  117.1080  225.7734  118.5941  223.8045  123.5230  223.9859  123.5408  -12.7832   -0.0218
  2.640  229.7997  123.5161  224.8071  123.5074  224.8041  123.4779  229.6157  125.2377  227.4020  130.3272  227.5971  130.3525  -15.9184   -0.0276
  2.650  233.6968  130.5500  228.4988  130.3646  228.4939  130.3315  233.4530  132.3962  230.9666  137.6463  231.1761  137.6806  -19.6821   -0.0349
  2.660  237.5725  138.1352  232.1645  137.7481  232.1578  137.7108  237.2568  140.1147  234.4664  145.5233  234.6914  145.5682  -24.1590   -0.0438
  2.670  241.3936  146.3196  235.7724  145.7028  235.7640  145.6607  240.9918  148.4414  237.8629  154.0036  238.1040  154.0612  -29.4353   -0.0546
  2.680  245.1190  155.1546  239.2836  154.2766  239.2737  154.2290  244.6145  157.4275  241.1086  163.1349  241.3666  163.2075  -35.5949   -0.0677
  2.690  248.6980  164.6941  242.6504  163.5201  242.6392  163.4662  248.0713  167.1266  244.1463  172.9664  244.4219  173.0567  -42.7163   -0.0834
  2.700  252.0690  174.9941  245.8146  173.4857  245.8025  173.4247  251.2974  177.5942  246.9072  183.5480  247.2007  183.6591  -50.8685   -0.1020
  2.710  255.1567  186.1120  248.7058  184.2268  248.6934  184.1578  254.2139  188.8862  249.3085  194.9286  249.6202  195.0641  -60.1065   -0.1241
  2.720  257.8707  198.1044  251.2391  195.7968  251.2271  195.7187  256.7263  201.0575  251.2520  207.1545  251.5817  207.3183  -70.4669   -0.1500
  2.730  260.1021  211.0254  253.3132  208.2462  253.3027  208.1581  258.7215  214.1595  252.6221  220.2664  252.9689  220.4631  -81.9631   -0.1802
  2.740  261.7220  224.9233  254.8076  221.6210  254.8000  221.5217  260.0657  228.2364  253.2831  234.2960  253.6458  234.5308  -94.5818   -0.2149
  2.750  262.5782  239.8363  255.5809  235.9577  255.5777  235.8463  260.6020  243.3216  253.0785  249.2613  253.4547  249.5397 -108.2793   -0.2547
  2.760  262.4935  255.7872  255.4680  251.2793  255.4714  251.1549  260.1488  259.4310  251.8294  265.1611  252.2158  265.4889 -122.9805   -0.2999
  2.770  261.2646  272.7763  254.2798  267.5886  254.2923  267.4506  258.4987  276.5562  249.3352  281.9671  249.7270  282.3507 -138.5795   -0.3508
  2.780  258.6618  290.7728  251.8020  284.8604  251.8267  284.7085  255.4190  294.6559  245.3750  299.6165  245.7660  300.0620 -154.9433   -0.4078
  2.790  254.4317  309.7042  247.7976  303.0321  247.8380  302.8665  250.6551  313.6450  239.7124  318.0020  240.0944  318.5154 -171.9200   -0.4709
  2.800  248.3021  329.4451  242.0108  321.9930  242.0708  321.8148  243.9364  333.3835  232.1028  336.9623  232.4656  337.5487 -189.3515   -0.5405
  2.810  239.9917  349.8049  234.1752  341.5729  234.2591  341.3842  234.9864  353.6648  222.3051  356.2727  222.6361  356.9358 -207.0924   -0.6166
  2.820  229.2250  370.5160  224.0269  361.5310  224.1389  361.3351  223.5391  374.2049  210.0972  375.6379  210.3821  376.3793 -225.0359   -0.6993
  2.830  215.7527  391.2251  211.3222  381.5469  211.4665  381.3485  209.3596  394.6349  195.2973  394.6884  195.5198  395.5068 -243.1470   -0.7887
  2.840  199.3787  411.4900  195.8621  401.2162  196.0419  401.0214  192.2714  414.4995  177.7877  412.9833  177.9305  413.8739 -261.5020   -0.8848
  2.850  179.9916  430.7846  177.5207  420.0529  177.7380  419.8695  172.1873  433.2642  157.5413  430.0218  157.5867  430.9750 -280.3317   -0.9878
  2.860  157.5982  448.5165  156.2771  437.5034  156.5319  437.3402  149.1416  450.3347  134.6464  445.2640  134.5779  446.2657 -300.0623   -1.0981
  2.870  132.3541  464.0582  132.2446  452.9725  132.5347  452.8389  123.3178  465.0893  109.3262  458.1632  109.1299  459.1946 -321.3440   -1.2162
  2.880  104.5845  476.7936  105.6938  465.8634  106.0140  465.7688   95.0668  476.9253   81.9484  468.2074   81.6145  469.2455 -345.0514   -1.3430
  2.890   74.7884  486.1746   77.0606  475.6291   77.4032  475.5817   64.9076  485.3143   53.0188  474.9653   52.5431  475.9843 -372.2377   -1.4798
  2.900   43.6194  491.7828   46.9351  481.8296   47.2896  481.8357   33.5064  489.8607   23.1587  478.1329   22.5431  479.1057 -404.0244   -1.6282
  2.910   11.8417  493.3836   16.0262  484.1852   16.3803  484.2484    1.6322  490.3515   -6.9368  477.5704   -7.6837  478.4709 -441.4135   -1.7905
  2.920  -19.7369  490.9629  -14.8944  482.6169  -14.5540  482.7372  -29.9081  486.7887  -36.5537  473.3245  -37.4172  474.1291 -485.0293   -1.9687
  2.930  -50.3456  484.7344  -45.0651  477.2620  -44.7515  477.4360  -60.3453  479.3940  -65.0212  465.6284  -65.9819  466.3179 -534.8158   -2.1653
  2.940  -79.3322  475.1143  -73.8099  468.4608  -73.5353  468.6817  -89.0227  468.5841  -91.7726  454.8784  -92.8080  455.4391 -589.7480   -2.3820
  2.950 -106.2313  462.6614 -100.6079  456.7119 -100.3826  456.9699 -115.4568  454.9150 -116.3954  441.5885 -117.4816  442.0117 -647.6363   -2.6200
  2.960 -130.8036  447.9893 -125.1400  442.5998 -124.9717  442.8824 -139.3728  439.0054 -138.6612  426.3250 -139.7744  426.6072 -705.1070   -2.8791
  2.970 -153.0335  431.6617 -147.3020  426.7030 -147.1950  426.9957 -160.7031  421.4471 -158.5283  409.6307 -159.6455  409.7722 -757.8247   -3.1576
  2.980 -173.0692  414.0916 -167.1699  409.4992 -167.1244  409.7858 -179.5428  402.7206 -176.1064  391.9485 -177.2055  391.9528 -800.9696   -3.4520
  2.990 -191.1037  395.4816 -184.9125  391.2940 -184.9232  391.5585 -196.0592  383.1433 -191.5804  373.5678 -192.6399  373.4414 -829.9178   -3.7569
  3.000 -207.2255  375.8549 -200.6652  372.2175 -200.7211  372.4466 -210.3801  362.8816 -205.1071  354.6248 -206.1056  354.3785 -841.0043   -4.0660
  3.010 -221.3189  355.1950 -214.4252  352.3124 -214.5108  352.4980 -222.5143  342.0434 -216.7293  335.1771 -217.6474  334.8267 -832.2031   -4.3718
  3.020 -233.1017  333.6292 -226.0414  331.6797 -226.1405  331.8217 -232.3663  320.8029 -226.3695  315.3226 -227.1920  314.8896 -803.5638   -4.6671
  3.030 -242.2950  311.5234 -235.3217  310.5837 -235.4214  310.6882 -239.8437  299.4685 -233.9161  295.2830 -234.6352  294.7922 -757.2889   -4.9454
  3.040 -248.8006  289.4152 -242.1766  289.4363 -242.2699  289.5128 -244.9719  278.4428 -239.3376  275.3915 -239.9536  274.8673 -697.4254   -5.2017
  3.050 -252.7638  267.8532 -246.6954  268.6893 -246.7808  268.7467 -247.9338  258.1186 -242.7419  256.0064 -243.2614  255.4695 -629.2411   -5.4330
  3.060 -254.5130  247.2637 -249.1243  248.7226 -249.2039  248.7673 -249.0288  238.7922 -244.3572  237.4237 -244.7905  236.8897 -558.4292   -5.6382
  3.070 -254.4553  227.9024 -249.7930  229.7892 -249.8705  229.8244 -248.6002  220.6340 -244.4734  219.8346 -244.8321  219.3143 -490.3211   -5.8184
  3.080 -252.9905  209.8723 -249.0445  212.0149 -249.1234  212.0414 -246.9781  203.7031 -243.3857  203.3275 -243.6812  202.8274 -429.2665   -5.9761
  3.090 -250.4656  193.1680 -247.1901  195.4268 -247.2735  195.4436 -244.4483  187.9792 -241.3605  187.9113 -241.6029  187.4353 -378.2820   -6.1152
  3.100 -247.1605  177.7178 -244.4911  179.9864 -244.5809  179.9910 -241.2428  173.3935 -238.6208  173.5420 -238.8191  173.0920 -338.9936   -6.2397
  3.110 -243.2904  163.4156 -241.1552  165.6159 -241.2526  165.6054 -237.5427  159.8508 -235.3441  160.1448 -235.5062  159.7213 -311.8321   -6.3543
  3.120 -239.0146  150.1401 -237.3412  152.2179 -237.4461  152.1884 -233.4840  147.2442 -231.6668  147.6285 -231.7994  147.2309 -296.3954   -6.4633
  3.130 -234.4457  137.7672 -233.1650  139.6865 -233.2764  139.6339 -229.1652  135.4639 -227.6888  135.8953 -227.7977  135.5224 -291.8754   -6.5705
  3.140 -229.6580  126.1759 -228.7057  127.9155 -228.8217  127.8352 -224.6530  124.4018 -223.4788  124.8464 -223.5689  124.4964 -297.4624   -6.6798
  3.150 -224.6936  115.2526 -224.0109  116.8028 -224.1281  116.6899 -219.9864  113.9546 -219.0780  114.3858 -219.1534  114.0560 -312.6534   -6.7947
  3.160 -219.5661  104.8931 -219.1001  106.2539 -219.2133  106.1033 -215.1796  104.0252 -214.5024  104.4223 -214.5661  104.1098 -337.4202   -6.9187
  3.170 -214.2628   95.0049 -213.9668   96.1847 -214.0689   95.9914 -210.2232   94.5248 -209.7437   94.8721 -209.7976   94.5735 -372.2074   -7.0555
  3.180 -208.7461   85.5096 -208.5801   86.5248 -208.6613   86.2845 -205.0836   85.3751 -204.7693   85.6612 -204.8140   85.3731 -417.7496   -7.2090
  3.190 -202.9523   76.3476 -202.8850   77.2221 -202.9321   76.9320 -199.7016   76.5117 -199.5202   76.7300 -199.5547   76.4493 -474.7229   -7.3835
  3.200 -196.7910   67.4848 -196.8019   68.2490 -196.7986   67.9096 -193.9895   67.8914 -193.9082   68.0406 -193.9303   67.7654 -543.2836   -7.5831
  3.210 -190.1447   58.9251 -190.2283   59.6137 -190.1546   59.2306 -187.8287   59.5041 -187.8144   59.5898 -187.8207   59.3197 -622.6024   -7.8119
  3.220 -182.8733   50.7291 -183.0433   51.3757 -182.8773   50.9624 -181.0713   51.3923 -181.0911   51.4301 -181.0783   51.1669 -710.5568   -8.0731
  3.230 -174.8312   43.0392 -175.1230   43.6667 -174.8438   43.2481 -173.5527   43.6798 -173.5781   43.6989 -173.5440   43.4469 -803.7736   -8.3684
  3.240 -165.9063   36.1057 -166.3739   36.7118 -165.9677   36.3255 -165.1284   36.6035 -165.1431   36.6498 -165.0881   36.4148 -898.1637   -8.6985
  3.250 -156.0892   30.2919 -156.7911   30.8345 -156.2602   30.5297 -155.7452   30.5305 -155.7592   30.6636 -155.6874   30.4510 -989.9311   -9.0623
  3.260 -145.5637   26.0287 -146.5344   26.4207 -145.9062   26.2491 -145.5429   25.9214 -145.6076   26.1986 -145.5262   26.0106 *********   -9.4580
  3.270 -134.7677   23.6904 -135.9867   23.8187 -135.3163   23.8181 -134.9381   23.2054 -135.1469   23.6495 -135.0634   23.4837 *********   -9.8838
  3.280 -124.3546   23.4223 -125.7336   23.1896 -125.0935   23.3660 -124.5995   22.5846 -125.0603   23.1535 -124.9790   23.0028 *********  -10.3383
  3.290 -115.0227   25.0205 -116.4289   24.3876 -115.8854   24.7079 -115.2678   23.8853 -116.0528   24.4705 -115.9718   24.3258 *********  -10.8211
  3.300 -107.2943   27.9609 -108.5965   26.9594 -108.1866   27.3634 -107.5043   26.5801 -108.6135   27.0450 -108.5233   26.9002 *********  -11.3308
  3.310 -101.3744   31.5635 -102.4809   30.2752 -102.2039   30.7001 -101.5300   29.9730 -102.8942   30.2037 -102.7801   30.0617 *********  -11.8637
  3.320  -97.1447   35.1869  -98.0151   33.7096  -97.8430   34.1118  -97.2282   33.4163  -98.7407   33.3505  -98.5907   33.2269 *********  -12.4116
  3.330  -94.2512   38.3721  -94.8870   36.7934  -94.7846   37.1565  -94.2526   36.4555  -95.8032   36.0835  -95.6189   36.0039 *********  -12.9605
  3.340  -92.2433   40.9230  -92.6719   39.3073  -92.6143   39.6341  -92.1733   38.8894  -93.6694   38.2409  -93.4721   38.2274 *********  -13.4928
  3.350  -90.7490   42.8909  -91.0068   41.2765  -90.9837   41.5738  -90.6304   40.7423  -92.0062   39.8699  -91.8289   39.9259 *********  -13.9898
  3.360  -89.5881   44.4294  -89.7071   42.8345  -89.7152   43.1028  -89.4265   42.1386  -90.6434   41.1029  -90.5136   41.2109 *********  -14.4402
  3.370  -88.7249   45.6356  -88.7286   44.0693  -88.7619   44.3038  -88.4920   43.1716  -89.5337   42.0311  -89.4623   42.1647 *********  -14.8690
  3.380  -88.1489   46.5151  -88.0570   44.9827  -88.1017   45.1810  -87.7927   43.8679  -88.6586   42.6743  -88.6421   42.8098 *********  -15.3801
  3.390  -87.8107   47.0338  -87.6377   45.5278  -87.6804   45.7050  -87.2746   44.2199  -87.9752   43.0161  -88.0027   43.1378 *********  -16.0058
  3.400  -87.6227   47.1716  -87.3519   45.6923  -87.4105   45.8600  -86.8556   44.2330  -87.4066   43.0524  -87.4648   43.1523 *********  -16.5273
  3.410  -87.4918   46.9414  -87.1261   45.5249  -87.2028   45.6630  -86.4674   43.9403  -86.8881   42.8109  -86.9654   42.8871 -812.2723  -16.8258
  3.420  -87.3336   46.3800  -86.9004   45.0447  -86.9797   45.1497  -86.0507   43.3762  -86.3648   42.3184  -86.4523   42.3724 -496.8144  -17.0083
  3.430  -87.0819   45.5444  -86.6058   44.2950  -86.6787   44.3724  -85.5550   42.5900  -85.7870   41.6157  -85.8784   41.6507 -400.3964  -17.1555
  3.440  -86.6948   44.5009  -86.1968   43.3361  -86.2593   43.3923  -84.9492   41.6376  -85.1220   40.7521  -85.2131   40.7716 -354.9908  -17.2859
  3.450  -86.1526   43.3143  -85.6505   42.2291  -85.7011   42.2696  -84.2199   40.5727  -84.3534   39.7762  -84.4420   39.7836 -319.9080  -17.4035
  3.460  -85.4531   42.0423  -84.9611   41.0293  -84.9999   41.0584  -83.3671   39.4420  -83.4778   38.7312  -83.5625   38.7295 -289.5753  -17.5099
  3.470  -84.6059   40.7322  -84.1351   39.7826  -84.1628   39.8035  -82.3994   38.2836  -82.5005   37.6532  -82.5809   37.6449 -262.4772  -17.6064
  3.480  -83.6275   39.4203  -83.1858   38.5248  -83.2036   38.5400  -81.3306   37.1268  -81.4319   36.5704  -81.5080   36.5575 -238.0339  -17.6939
  3.490  -82.5371   38.1334  -82.1302   37.2829  -82.1390   37.2940  -80.1766   35.9926  -80.2853   35.5040  -80.3574   35.4878 -216.0975  -17.7733
  3.500  -81.3546   36.8895  -80.9859   36.0757  -80.9869   36.0840  -78.9531   34.8958  -79.0743   34.4687  -79.1428   34.4505 -196.6783  -17.8456
  3.510  -80.0986   35.7007  -79.7702   34.9158  -79.7643   34.9221  -77.6751   33.8457  -77.8124   33.4748  -77.8776   33.4554 -179.7985  -17.9116
  3.520  -78.7858   34.5738  -78.4987   33.8113  -78.4868   33.8161  -76.3560   32.8481  -76.5115   32.5286  -76.5739   32.5086 -165.4287  -17.9724
  3.530  -77.4308   33.5125  -77.1853   32.7664  -77.1680   32.7702  -75.0071   31.9056  -75.1824   31.6336  -75.2424   31.6134 -153.4712  -18.0288
  3.540  -76.0458   32.5178  -75.8417   31.7830  -75.8197   31.7861  -73.6383   31.0193  -73.8342   30.7915  -73.8920   30.7715 -143.7650  -18.0817
  3.550  -74.6410   31.5891  -74.4781   30.8613  -74.4517   30.8637  -72.2577   30.1886  -72.4746   30.0025  -72.5307   29.9829 -136.1013  -18.1317
  3.560  -73.2251   30.7248  -73.1026   30.0002  -73.0722   30.0021  -70.8719   29.4124  -71.1101   29.2659  -71.1646   29.2469 -130.2414  -18.1795
  3.570  -71.8047   29.9228  -71.7222   29.1979  -71.6882   29.1994  -69.4864   28.6886  -69.7460   28.5804  -69.7992   28.5622 -125.9350  -18.2258
  3.580  -70.3856   29.1802  -70.3425   28.4521  -70.3050   28.4533  -68.1055   28.0153  -68.3867   27.9444  -68.4388   27.9269 -122.9353  -18.2710
  3.590  -68.9722   28.4945  -68.9680   27.7604  -68.9273   27.7614  -66.7327   27.3902  -67.0356   27.3559  -67.0867   27.3393 -121.0105  -18.3155
  3.600  -67.5681   27.8628  -67.6024   27.1202  -67.5586   27.1209  -65.3708   26.8108  -65.6956   26.8129  -65.7460   26.7973 -119.9526  -18.3595
  3.610  -66.1761   27.2823  -66.2486   26.5288  -66.2019   26.5293  -64.0220   26.2750  -64.3690   26.3136  -64.4187   26.2988 -119.5815  -18.4035
  3.620  -64.7984   26.7504  -64.9089   25.9837  -64.8593   25.9840  -62.6879   25.7804  -63.0575   25.8558  -63.1067   25.8419 -119.7476  -18.4475
  3.630  -63.4367   26.2645  -63.5852   25.4824  -63.5328   25.4826  -61.3697   25.3250  -61.7625   25.4377  -61.8113   25.4248 -120.3312  -18.4917
  3.640  -62.0923   25.8224  -62.2788   25.0225  -62.2236   25.0227  -60.0683   24.9067  -60.4851   25.0574  -60.5335   25.0455 -121.2403  -18.5363
  3.650  -60.7661   25.4219  -60.9908   24.6019  -60.9327   24.6020  -58.7843   24.5237  -59.2261   24.7134  -59.2742   24.7023 -122.4082  -18.5813
  3.660  -59.4589   25.0610  -59.7218   24.2184  -59.6609   24.2185  -57.5181   24.1742  -57.9860   24.4039  -58.0338   24.3938 -123.7899  -18.6268
  3.670  -58.1709   24.7378  -58.4723   23.8700  -58.4087   23.8703  -56.2698   23.8565  -56.7651   24.1276  -56.8127   24.1183 -125.3588  -18.6728
  3.680  -56.9026   24.4507  -57.2427   23.5551  -57.1762   23.5555  -55.0395   23.5693  -55.5637   23.8829  -55.6111   23.8746 -127.1035  -18.7195
  3.690  -55.6541   24.1982  -56.0330   23.2719  -55.9637   23.2725  -53.8269   23.3111  -54.3818   23.6689  -54.4291   23.6613 -129.0250  -18.7669
  3.700  -54.4251   23.9789  -54.8431   23.0188  -54.7710   23.0197  -52.6319   23.0807  -53.2194   23.4842  -53.2667   23.4775 -131.1346  -18.8151
  3.710  -53.2158   23.7918  -53.6729   22.7946  -53.5979   22.7959  -51.4539   22.8770  -52.0764   23.3279  -52.1236   23.3220 -133.4515  -18.8642
  3.720  -52.0259   23.6358  -52.5222   22.5979  -52.4442   22.5996  -50.2925   22.6992  -50.9526   23.1993  -50.9997   23.1942 -136.0013  -18.9142
  3.730  -50.8551   23.5100  -51.3904   22.4277  -51.3094   22.4299  -49.1473   22.5462  -49.8477   23.0974  -49.8948   23.0931 -138.8153  -18.9652
  3.740  -49.7032   23.4138  -50.2773   22.2829  -50.1933   22.2857  -48.0175   22.4176  -48.7616   23.0218  -48.8086   23.0182 -141.9288  -19.0173
  3.750  -48.5699   23.3464  -49.1823   22.1626  -49.0951   22.1663  -46.9025   22.3125  -47.6939   22.9719  -47.7409   22.9690 -145.3808  -19.0708
  3.760  -47.4550   23.3076  -48.1048   22.0663  -48.0144   22.0708  -45.8017   22.2308  -46.6443   22.9473  -46.6912   22.9451 -149.2131  -19.1256
  3.770  -46.3581   23.2970  -47.0442   21.9932  -46.9507   21.9987  -44.7143   22.1719  -45.6125   22.9478  -45.6594   22.9462 -153.4696  -19.1820
  3.780  -45.2791   23.3145  -46.0000   21.9430  -45.9031   21.9496  -43.6395   22.1359  -44.5984   22.9731  -44.6452   22.9722 -158.1962  -19.2401
  3.790  -44.2178   23.3598  -44.9715   21.9152  -44.8712   21.9231  -42.5767   22.1225  -43.6017   23.0233  -43.6484   23.0230 -163.4399  -19.3002
  3.800  -43.1740   23.4332  -43.9581   21.9097  -43.8543   21.9190  -41.5250   22.1320  -42.6221   23.0984  -42.6687   23.0987 -169.2487  -19.3624
  3.810  -42.1477   23.5347  -42.9590   21.9265  -42.8517   21.9373  -40.4837   22.1645  -41.6597   23.1985  -41.7061   23.1993 -175.6706  -19.4269
  3.820  -41.1390   23.6646  -41.9737   21.9656  -41.8628   21.9782  -39.4520   22.2206  -40.7143   23.3238  -40.7605   23.3252 -182.7538  -19.4941
  3.830  -40.1481   23.8231  -41.0015   22.0272  -40.8868   22.0417  -38.4292   22.3006  -39.7860   23.4748  -39.8319   23.4767 -190.5461  -19.5641
  3.840  -39.1751   24.0107  -40.0418   22.1117  -39.9234   22.1285  -37.4146   22.4054  -38.8749   23.6517  -38.9204   23.6541 -199.0941  -19.6373
  3.850  -38.2204   24.2276  -39.0942   22.2197  -38.9718   22.2389  -36.4075   22.5358  -37.9813   23.8550  -38.0264   23.8579 -208.4436  -19.7139
  3.860  -37.2845   24.4744  -38.1579   22.3519  -38.0315   22.3737  -35.4073   22.6929  -37.1055   24.0852  -37.1500   24.0886 -218.6386  -19.7942
  3.870  -36.3680   24.7513  -37.2327   22.5091  -37.1022   22.5338  -34.4136   22.8779  -36.2479   24.3429  -36.2917   24.3467 -229.7212  -19.8787
  3.880  -35.4715   25.0589  -36.3181   22.6924  -36.1834   22.7203  -33.4257   23.0922  -35.4090   24.6286  -35.4519   24.6328 -241.7312  -19.9675
  3.890  -34.5957   25.3973  -35.4139   22.9030  -35.2748   22.9345  -32.4434   23.3375  -34.5894   24.9429  -34.6313   24.9476 -254.7056  -20.0611
  3.900  -33.7414   25.7671  -34.5199   23.1424  -34.3764   23.1778  -31.4664   23.6157  -33.7898   25.2864  -33.8305   25.2915 -268.6782  -20.1598
  3.910  -32.9093   26.1684  -33.6362   23.4123  -33.4882   23.4520  -30.4946   23.9288  -33.0111   25.6597  -33.0503   25.6654 -283.6789  -20.2641
  3.920  -32.1000   26.6015  -32.7629   23.7145  -32.6103   23.7591  -29.5281   24.2791  -32.2539   26.0637  -32.2913   26.0699 -299.7328  -20.3742
  3.930  -31.3142   27.0669  -31.9006   24.0513  -31.7433   24.1011  -28.5670   24.6695  -31.5191   26.4989  -31.5544   26.5059 -316.8590  -20.4907
  3.940  -30.5524   27.5651  -31.0498   24.4249  -30.8878   24.4806  -27.6120   25.1026  -30.8076   26.9664  -30.8405   26.9744 -335.0701  -20.6138
  3.950  -29.8148   28.0967  -30.2117   24.8380  -30.0450   24.9003  -26.6638   25.5818  -30.1204   27.4674  -30.1505   27.4765 -354.3697  -20.7440
  3.960  -29.1019   28.6629  -29.3878   25.2936  -29.2163   25.3631  -25.7235   26.1107  -29.4585   28.0031  -29.4853   28.0138 -374.7516  -20.8818
  3.970  -28.4140   29.2653  -28.5799   25.7947  -28.4038   25.8722  -24.7928   26.6930  -28.8232   28.5755  -28.8464   28.5881 -396.1973  -21.0274
  3.980  -27.7515   29.9062  -27.7906   26.3447  -27.6100   26.4311  -23.8737   27.3330  -28.2162   29.1866  -28.2353   29.2019 -418.6743  -21.1812
  3.990  -27.1152   30.5886  -27.0232   26.9471  -26.8383   27.0434  -22.9690   28.0354  -27.6396   29.8392  -27.6542   29.8579 -442.1335  -21.3437
  4.000  -26.5066   31.3164  -26.2817   27.6056  -26.0929   27.7128  -22.0820   28.8050  -27.0963   30.5365  -27.1061   30.5595 -466.5074  -21.5151
  4.010  -25.9282   32.0940  -25.5710   28.3238  -25.3788   28.4431  -21.2171   29.6471  -26.5904   31.2819  -26.5952   31.3103 -491.7079  -21.6958
  4.020  -25.3838   32.9270  -24.8973   29.1052  -24.7023   29.2379  -20.3796   30.5673  -26.1273   32.0793  -26.1270   32.1143 -517.6244  -21.8861
  4.030  -24.8790   33.8209  -24.2679   29.9532  -24.0710   30.1005  -19.5761   31.5714  -25.7137   32.9321  -25.7085   32.9752 -544.1220  -22.0860
  4.040  -24.4213   34.7818  -23.6912   30.8705  -23.4936   31.0338  -18.8146   32.6651  -25.3587   33.8437  -25.3490   33.8963 -571.0412  -22.2959
  4.050  -24.0208   35.8150  -23.1774   31.8589  -22.9806   32.0396  -18.1048   33.8543  -25.0729   34.8161  -25.0595   34.8800 -598.1967  -22.5157
  4.060  -23.6901   36.9250  -22.7381   32.9192  -22.5438   33.1187  -17.4584   35.1446  -24.8694   35.8500  -24.8533   35.9268 -625.3780  -22.7455
  4.070  -23.4445   38.1145  -22.3861   34.0506  -22.1967   34.2701  -16.8892   36.5407  -24.7631   36.9436  -24.7459   37.0349 -652.3504  -22.9853
  4.080  -23.3018   39.3840  -22.1359   35.2499  -21.9541   35.4905  -16.4137   38.0463  -24.7704   38.0920  -24.7542   38.1992 -678.8571  -23.2348
  4.090  -23.2823   40.7301  -22.0028   36.5117  -21.8317   36.7741  -16.0510   39.6636  -24.9090   39.2865  -24.8963   39.4107 -704.6214  -23.4937
  4.100  -23.4080   42.1455  -22.0029   37.8272  -21.8461   38.1115  -15.8231   41.3922  -25.1968   40.5138  -25.1904   40.6556 -729.3506  -23.7617
  4.110  -23.7018   43.6175  -22.1523   39.1838  -22.0138   39.4897  -15.7549   43.2283  -25.6509   41.7554  -25.6540   41.9149 -752.7401  -24.0384
  4.120  -24.1867   45.1273  -22.4662   40.5653  -22.3504   40.8916  -15.8740   45.1636  -26.2858   42.9872  -26.3019   43.1639 -774.4785  -24.3230
  4.130  -24.8838   46.6496  -22.9583   41.9510  -22.8696   42.2955  -16.2101   47.1838  -27.1121   44.1801  -27.1447   44.3723 -794.2531  -24.6149
  4.140  -25.8107   48.1524  -23.6391   43.3162  -23.5818   43.6757  -16.7940   49.2677  -28.1346   45.3000  -28.1868   45.5055 -811.7560  -24.9132
  4.150  -26.9793   49.5970  -24.5153   44.6325  -24.4933   45.0026  -17.6561   51.3852  -29.3503   46.3097  -29.4248   46.5254 -826.6907  -25.2170
  4.160  -28.3938   50.9394  -25.5882   45.8683  -25.6048   46.2436  -18.8240   53.4969  -30.7471   47.1709  -30.8459   47.3927 -838.7783  -25.5252
  4.170  -30.0481   52.1321  -26.8531   46.9903  -26.9103   47.3643  -20.3197   55.5528  -32.3032   47.8464  -32.4272   48.0703 -847.7648  -25.8368
  4.180  -31.9251   53.1266  -28.2979   47.9645  -28.3965   48.3300  -22.1557   57.4936  -33.9871   48.3040  -34.1362   48.5253 -853.4271  -26.1504
  4.190  -33.9954   53.8769  -29.9036   48.7580  -30.0426   49.1077  -24.3314   59.2518  -35.7589   48.5186  -35.9320   48.7330 -855.5801  -26.4648
  4.200  -36.2180   54.3428  -31.6432   49.3412  -31.8199   49.6677  -26.8295   60.7557  -37.5731   48.4754  -37.7679   48.6792 -854.0819  -26.7787
  4.210  -38.5415   54.4936  -33.4829   49.6892  -33.6929   49.9858  -29.6134   61.9337  -39.3811   48.1710  -39.5946   48.3611 -848.8397  -27.0906
  4.220  -40.9075   54.3108  -35.3832   49.7843  -35.6204   50.0455  -32.6263   62.7214  -41.1355   47.6138  -41.3641   47.7881 -839.8141  -27.3992
  4.230  -43.2538   53.7901  -37.3000   49.6173  -37.5576   49.8393  -35.7933   63.0682  -42.7932   46.8231  -43.0332   46.9805 -827.0225  -27.7032
  4.240  -45.5187   52.9420  -39.1879   49.1891  -39.4581   49.3698  -39.0256   62.9431  -44.3181   45.8269  -44.5660   45.9673 -810.5417  -28.0010
  4.250  -47.6451   51.7913  -41.0024   48.5109  -41.2776   48.6500  -42.2276   62.3395  -45.6832   44.6591  -45.9357   44.7831 -790.5084  -28.2915
  4.260  -49.5847   50.3746  -42.7029   47.6036  -42.9758   47.7026  -45.3052   61.2761  -46.8709   43.3563  -47.1253   43.4653 -767.1187  -28.5735
  4.270  -51.3000   48.7374  -44.2554   46.4961  -44.5199   46.5580  -48.1735   59.7949  -47.8727   41.9557  -48.1269   42.0511 -740.6259  -28.8456
  4.280  -52.7665   46.9300  -45.6346   45.2231  -45.8855   45.2519  -50.7639   57.9564  -48.6882   40.4918  -48.9407   40.5756 -711.3359  -29.1070
  4.290  -53.9723   45.0041  -46.8241   43.8225  -47.0576   43.8227  -53.0277   55.8330  -49.3235   38.9958  -49.5732   39.0699 -679.6019  -29.3568
  4.300  -54.9173   43.0089  -47.8168   42.3320  -48.0305   42.3084  -54.9377   53.5017  -49.7893   37.4944  -50.0356   37.5605 -645.8168  -29.5941
  4.310  -55.6109   40.9890  -48.6140   40.7873  -48.8066   40.7447  -56.4860   51.0378  -50.0993   36.0091  -50.3422   36.0689 -610.4042  -29.8184
  4.320  -56.0703   38.9822  -49.2234   39.2204  -49.3944   39.1631  -57.6816   48.5097  -50.2691   34.5569  -50.5086   34.6119 -573.8086  -30.0293
  4.330  -56.3171   37.0190  -49.6574   37.6581  -49.8074   37.5899  -58.5462   45.9762  -50.3147   33.1505  -50.5512   33.2019 -536.4845  -30.2265
  4.340  -56.3757   35.1229  -49.9320   36.1221  -50.0619   36.0463  -59.1093   43.4847  -50.2520   31.7989  -50.4858   31.8475 -498.8853  -30.4098
  4.350  -56.2712   33.3104  -50.0643   34.6292  -50.1753   34.5485  -59.4052   41.0713  -50.0960   30.5077  -50.3277   30.5545 -461.4523  -30.5794
  4.360  -56.0280   31.5923  -50.0719   33.1912  -50.1655   33.1078  -59.4698   38.7619  -49.8605   29.2803  -50.0905   29.3259 -424.6043  -30.7354
  4.370  -55.6691   29.9747  -49.9720   31.8164  -50.0498   31.7318  -59.3379   36.5735  -49.5579   28.1180  -49.7870   28.1629 -388.7277  -30.8783
  4.380  -55.2153   28.4597  -49.7805   30.5094  -49.8441   30.4250  -59.0423   34.5156  -49.1996   27.0206  -49.4280   27.0651 -354.1687  -31.0084
  4.390  -54.6850   27.0467  -49.5121   29.2725  -49.5628   29.1891  -58.6125   32.5921  -48.7950   25.9870  -49.0234   26.0314 -321.2267  -31.1265
  4.400  -54.0941   25.7331  -49.1796   28.1060  -49.2188   28.0243  -58.0747   30.8028  -48.3529   25.0150  -48.5817   25.0595 -290.1497  -31.2331
  4.410  -53.4564   24.5147  -48.7946   27.0089  -48.8235   26.9292  -57.4517   29.1442  -47.8804   24.1022  -48.1100   24.1470 -261.1317  -31.3291
  4.420  -52.7835   23.3867  -48.3667   25.9789  -48.3865   25.9015  -56.7625   27.6110  -47.3839   23.2458  -47.6147   23.2908 -234.3124  -31.4152
  4.430  -52.0850   22.3435  -47.9046   25.0134  -47.9161   24.9383  -56.0235   26.1964  -46.8685   22.4426  -47.1008   22.4881 -209.7783  -31.4923
  4.440  -51.3689   21.3795  -47.4154   24.1091  -47.4194   24.0363  -55.2481   24.8929  -46.3389   21.6899  -46.5731   21.7358 -187.5658  -31.5612
  4.450  -50.6417   20.4891  -46.9050   23.2627  -46.9023   23.1921  -54.4473   23.6930  -45.7988   20.9843  -46.0351   21.0307 -167.6659  -31.6228
  4.460  -49.9087   19.6668  -46.3788   22.4707  -46.3699   22.4022  -53.6302   22.5889  -45.2513   20.3232  -45.4900   20.3700 -150.0297  -31.6780
  4.470  -49.1744   18.9073  -45.8407   21.7297  -45.8262   21.6632  -52.8041   21.5731  -44.6991   19.7035  -44.9405   19.7508 -134.5748  -31.7274
  4.480  -48.4420   18.2056  -45.2945   21.0364  -45.2748   20.9716  -51.9748   20.6386  -44.1444   19.1227  -44.3887   19.1704 -121.1919  -31.7720
  4.490  -47.7143   17.5572  -44.7431   20.3876  -44.7184   20.3244  -51.1470   19.7786  -43.5891   18.5782  -43.8366   18.6263 -109.7518  -31.8123
  4.500  -46.9934   16.9577  -44.1888   19.7802  -44.1595   19.7185  -50.3244   18.9869  -43.0347   18.0676  -43.2855   18.1161 -100.1120  -31.8491
  4.510  -46.2810   16.4033  -43.6337   19.2116  -43.6000   19.1510  -49.5098   18.2577  -42.4823   17.5888  -42.7367   17.6376  -92.1228  -31.8829
  4.520  -45.5783   15.8903  -43.0794   18.6789  -43.0415   18.6194  -48.7053   17.5858  -41.9331   17.1395  -42.1912   17.1887  -85.6322  -31.9144
  4.530  -44.8862   15.4153  -42.5273   18.1799  -42.4852   18.1213  -47.9127   16.9663  -41.3877   16.7180  -41.6499   16.7675  -80.4913  -31.9440
  4.540  -44.2054   14.9754  -41.9783   17.7122  -41.9322   17.6543  -47.1331   16.3948  -40.8470   16.3224  -41.1133   16.3723  -76.5572  -31.9721
  4.550  -43.5363   14.5679  -41.4334   17.2737  -41.3833   17.2163  -46.3673   15.8673  -40.3113   15.9512  -40.5820   16.0014  -73.6965  -31.9992
  4.560  -42.8792   14.1902  -40.8933   16.8624  -40.8392   16.8056  -45.6159   15.3803  -39.7812   15.6028  -40.0565   15.6532  -71.7865  -32.0256
  4.570  -42.2343   13.8401  -40.3584   16.4768  -40.3004   16.4202  -44.8793   14.9304  -39.2569   15.2758  -39.5370   15.3265  -70.7172  -32.0516
  4.580  -41.6015   13.5156  -39.8293   16.1150  -39.7674   16.0586  -44.1575   14.5147  -38.7386   14.9690  -39.0238   15.0199  -70.3913  -32.0774
  4.590  -40.9808   13.2146  -39.3063   15.7756  -39.2403   15.7194  -43.4507   14.1304  -38.2266   14.6812  -38.5171   14.7322  -70.7240  -32.1034
  4.600  -40.3720   12.9357  -38.7895   15.4573  -38.7195   15.4010  -42.7587   13.7752  -37.7209   14.4112  -38.0169   14.4624  -71.6431  -32.1298
  4.610  -39.7751   12.6772  -38.2792   15.1587  -38.2050   15.1024  -42.0814   13.4469  -37.2216   14.1582  -37.5233   14.2095  -73.0877  -32.1566
  4.620  -39.1898   12.4378  -37.7755   14.8787  -37.6971   14.8223  -41.4184   13.1434  -36.7288   13.9212  -37.0365   13.9726  -75.0072  -32.1842
  4.630  -38.6159   12.2162  -37.2785   14.6163  -37.1957   14.5597  -40.7695   12.8630  -36.2424   13.6993  -36.5563   13.7507  -77.3605  -32.2126
  4.640  -38.0530   12.0112  -36.7881   14.3705  -36.7009   14.3137  -40.1343   12.6041  -35.7624   13.4918  -36.0829   13.5432  -80.1141  -32.2420
  4.650  -37.5010   11.8219  -36.3044   14.1405  -36.2126   14.0833  -39.5126   12.3652  -35.2888   13.2980  -35.6161   13.3494  -83.2417  -32.2726
  4.660  -36.9595   11.6472  -35.8273   13.9253  -35.7308   13.8678  -38.9038   12.1449  -34.8215   13.1173  -35.1559   13.1685  -86.7225  -32.3045
  4.670  -36.4282   11.4864  -35.3569   13.7242  -35.2555   13.6664  -38.3078   11.9422  -34.3604   12.9489  -34.7022   13.0000  -90.5402  -32.3378
  4.680  -35.9070   11.3386  -34.8930   13.5366  -34.7866   13.4784  -37.7239   11.7558  -33.9054   12.7925  -34.2550   12.8433  -94.6823  -32.3726
  4.690  -35.3954   11.2032  -34.4356   13.3618  -34.3240   13.3032  -37.1520   11.5849  -33.4566   12.6475  -33.8142   12.6980  -99.1391  -32.4090
  4.700  -34.8932   11.0795  -33.9846   13.1993  -33.8676   13.1403  -36.5916   11.4284  -33.0136   12.5135  -33.3797   12.5635 -103.9032  -32.4472
  4.710  -34.4001   10.9669  -33.5399   13.0485  -33.4174   12.9892  -36.0423   11.2857  -32.5766   12.3900  -32.9515   12.4394 -108.9686  -32.4872
  4.720  -33.9160   10.8649  -33.1015   12.9089  -32.9731   12.8492  -35.5037   11.1560  -32.1453   12.2766  -32.5294   12.3254 -114.3304  -32.5293
  4.730  -33.4404   10.7731  -32.6691   12.7801  -32.5348   12.7201  -34.9756   11.0387  -31.7197   12.1731  -32.1134   12.2211 -119.9844  -32.5733
  4.740  -32.9732   10.6909  -32.2428   12.6617  -32.1022   12.6014  -34.4576   10.9331  -31.2996   12.0791  -31.7034   12.1262 -125.9269  -32.6196
  4.750  -32.5142   10.6181  -31.8225   12.5534  -31.6754   12.4928  -33.9493   10.8387  -30.8850   11.9942  -31.2993   12.0402 -132.1543  -32.6682
  4.760  -32.0630   10.5541  -31.4080   12.4547  -31.2541   12.3939  -33.4505   10.7550  -30.4758   11.9184  -30.9010   11.9631 -138.6632  -32.7191
  4.770  -31.6196   10.4989  -30.9993   12.3654  -30.8384   12.3045  -32.9608   10.6816  -30.0718   11.8512  -30.5085   11.8945 -145.4498  -32.7726
  4.780  -31.1836   10.4519  -30.5962   12.2851  -30.4280   12.2241  -32.4800   10.6181  -29.6730   11.7926  -30.1218   11.8342 -152.5106  -32.8286
  4.790  -30.7550   10.4130  -30.1987   12.2137  -30.0229   12.1527  -32.0077   10.5641  -29.2793   11.7423  -29.7407   11.7820 -159.8417  -32.8874
  4.800  -30.3334   10.3819  -29.8067   12.1509  -29.6229   12.0900  -31.5438   10.5194  -28.8906   11.7002  -29.3652   11.7377 -167.4391  -32.9489
  4.810  -29.9188   10.3585  -29.4202   12.0965  -29.2281   12.0358  -31.0880   10.4837  -28.5069   11.6662  -28.9952   11.7012 -175.2988  -33.0133
  4.820  -29.5109   10.3424  -29.0390   12.0503  -28.8382   11.9899  -30.6400   10.4566  -28.1280   11.6400  -28.6308   11.6722 -183.4169  -33.0807
  4.830  -29.1097   10.3336  -28.6632   12.0121  -28.4533   11.9522  -30.1997   10.4380  -27.7540   11.6216  -28.2719   11.6506 -191.7896  -33.1512
  4.840  -28.7149   10.3318  -28.2926   11.9817  -28.0732   11.9225  -29.7669   10.4276  -27.3846   11.6110  -27.9185   11.6363 -200.4131  -33.2249
  4.850  -28.3265   10.3371  -27.9271   11.9591  -27.6979   11.9007  -29.3412   10.4254  -27.0200   11.6079  -27.5705   11.6292 -209.2844  -33.3018
  4.860  -27.9443   10.3491  -27.5668   11.9440  -27.3272   11.8866  -28.9227   10.4312  -26.6600   11.6125  -27.2280   11.6291 -218.4005  -33.3821
  4.870  -27.5683   10.3678  -27.2116   11.9364  -26.9611   11.8803  -28.5111   10.4448  -26.3046   11.6246  -26.8909   11.6360 -227.7593  -33.4658
  4.880  -27.1982   10.3932  -26.8615   11.9362  -26.5996   11.8817  -28.1062   10.4661  -25.9537   11.6442  -26.5593   11.6497 -237.3595  -33.5530
  4.890  -26.8339   10.4251  -26.5163   11.9433  -26.2426   11.8906  -27.7080   10.4951  -25.6074   11.6713  -26.2332   11.6702 -247.2005  -33.6438
  4.900  -26.4755   10.4635  -26.1762   11.9576  -25.8899   11.9071  -27.3162   10.5316  -25.2656   11.7060  -25.9126   11.6974 -257.2825  -33.7384
  4.910  -26.1227   10.5082  -25.8410   11.9791  -25.5416   11.9312  -26.9308   10.5758  -24.9283   11.7481  -25.5976   11.7312 -267.6068  -33.8367
  4.920  -25.7756   10.5594  -25.5107   12.0077  -25.1977   11.9628  -26.5517   10.6274  -24.5955   11.7979  -25.2881   11.7716 -278.1757  -33.9389
  4.930  -25.4339   10.6169  -25.1854   12.0434  -24.8579   12.0020  -26.1788   10.6866  -24.2671   11.8552  -24.9843   11.8184 -288.9921  -34.0451
  4.940  -25.0977   10.6807  -24.8650   12.0861  -24.5224   12.0488  -25.8119   10.7533  -23.9433   11.9203  -24.6862   11.8716 -300.0598  -34.1554
  4.950  -24.7668   10.7509  -24.5494   12.1359  -24.1910   12.1033  -25.4510   10.8276  -23.6239   11.9932  -24.3938   11.9312 -311.3828  -34.2698
  4.960  -24.4411   10.8274  -24.2388   12.1928  -23.8638   12.1655  -25.0960   10.9096  -23.3091   12.0740  -24.1072   11.9970 -322.9655  -34.3885
  4.970  -24.1207   10.9103  -23.9330   12.2568  -23.5406   12.2357  -24.7469   10.9993  -22.9989   12.1628  -23.8265   12.0691 -334.8115  -34.5116
  4.980  -23.8053   10.9997  -23.6321   12.3279  -23.2214   12.3138  -24.4036   11.0968  -22.6933   12.2599  -23.5518   12.1473 -346.9240  -34.6391
  4.990  -23.4949   11.0957  -23.3360   12.4062  -22.9063   12.4001  -24.0661   11.2023  -22.3924   12.3653  -23.2831   12.2316 -359.3042  -34.7711
  5.000  -23.1894   11.1983  -23.0449   12.4918  -22.5952   12.4949  -23.7344   11.3161  -22.0962   12.4794  -23.0205   12.3220 -371.9512  -34.9078
  5.010  -22.8888   11.3078  -22.7586   12.5849  -22.2881   12.5984  -23.4084   11.4382  -21.8050   12.6024  -22.7642   12.4184 -384.8608  -35.0492
  5.020  -22.5930   11.4244  -22.4772   12.6856  -21.9850   12.7108  -23.0883   11.5690  -21.5188   12.7346  -22.5141   12.5207 -398.0246  -35.1955
  5.030  -22.3019   11.5483  -22.2008   12.7940  -21.6860   12.8325  -22.7740   11.7087  -21.2377   12.8764  -22.2703   12.6289 -411.4294  -35.3467
  5.040  -22.0154   11.6798  -21.9294   12.9105  -21.3911   12.9640  -22.4656   11.8578  -20.9621   13.0280  -22.0330   12.7430 -425.0558  -35.5029
  5.050  -21.7336   11.8194  -21.6631   13.0353  -21.1005   13.1057  -22.1633   12.0166  -20.6922   13.1900  -21.8022   12.8630 -438.8774  -35.6642
  5.060  -21.4565   11.9674  -21.4021   13.1688  -20.8143   13.2581  -21.8673   12.1857  -20.4283   13.3629  -21.5781   12.9888 -452.8603  -35.8306
  5.070  -21.1841   12.1245  -21.1464   13.3113  -20.5328   13.4220  -21.5779   12.3655  -20.1709   13.5471  -21.3606   13.1205 -466.9618  -36.0022
  5.080  -20.9167   12.2913  -20.8964   13.4634  -20.2563   13.5978  -21.2955   12.5566  -19.9204   13.7432  -21.1499   13.2581 -481.1303  -36.1790
  5.090  -20.6545   12.4684  -20.6524   13.6255  -19.9852   13.7865  -21.0205   12.7599  -19.6777   13.9519  -20.9461   13.4017 -495.3049  -36.3611
  5.100  -20.3979   12.6568  -20.4149   13.7983  -19.7202   13.9889  -20.7537   12.9759  -19.4434   14.1738  -20.7493   13.5513 -509.4153  -36.5483
  5.110  -20.1475   12.8573  -20.1844   13.9823  -19.4619   14.2058  -20.4958   13.2054  -19.2186   14.4096  -20.5596   13.7072 -523.3819  -36.7406
  5.120  -19.9040   13.0708  -19.9616   14.1782  -19.2114   14.4381  -20.2479   13.4492  -19.0045   14.6599  -20.3773   13.8694 -537.1168  -36.9380
  5.130  -19.6686   13.2985  -19.7477   14.3868  -18.9698   14.6869  -20.0114   13.7080  -18.8024   14.9253  -20.2026   14.0382 -550.5244  -37.1403
  5.140  -19.4426   13.5411  -19.5436   14.6085  -18.7385   14.9530  -19.7878   13.9826  -18.6142   15.2063  -20.0357   14.2139 -563.5029  -37.3474
  5.150  -19.2276   13.7997  -19.3510   14.8439  -18.5194   15.2373  -19.5791   14.2735  -18.4417   15.5032  -19.8772   14.3967 -575.9457  -37.5590
  5.160  -19.0259   14.0749  -19.1713   15.0935  -18.3143   15.5406  -19.3874   14.5810  -18.2872   15.8162  -19.7273   14.5870 -587.7435  -37.7750
  5.170  -18.8397   14.3672  -19.0068   15.3574  -18.1259   15.8635  -19.2153   14.9051  -18.1533   16.1449  -19.5868   14.7851 -598.7865  -37.9951
  5.180  -18.6720   14.6765  -18.8594   15.6354  -17.9567   16.2061  -19.0658   15.2453  -18.0425   16.4888  -19.4565   14.9913 -608.9665  -38.2189
  5.190  -18.5256   15.0024  -18.7315   15.9269  -17.8099   16.5684  -18.9416   15.6007  -17.9578   16.8466  -19.3372   15.2059 -618.1795  -38.4461
  5.200  -18.4039   15.3437  -18.6257   16.2309  -17.6887   16.9497  -18.8461   15.9698  -17.9021   17.2167  -19.2301   15.4290 -626.3282  -38.6762
  5.210  -18.3099   15.6986  -18.5443   16.5460  -17.5968   17.3489  -18.7821   16.3501  -17.8782   17.5968  -19.1364   15.6606 -633.3244  -38.9090
  5.220  -18.2467   16.0645  -18.4895   16.8699  -17.5378   17.7642  -18.7526   16.7387  -17.8887   17.9837  -19.0576   15.9007 -639.0911  -39.1438
  5.230  -18.2168   16.4381  -18.4634   17.2003  -17.5151   18.1929  -18.7597   17.1319  -17.9356   18.3740  -18.9953   16.1488 -643.5646  -39.3803
  5.240  -18.2221   16.8153  -18.4675   17.5339  -17.5321   18.6316  -18.8053   17.5254  -18.0206   18.7635  -18.9510   16.4043 -646.6960  -39.6180
  5.250  -18.2639   17.1920  -18.5026   17.8676  -17.5918   19.0762  -18.8902   17.9144  -18.1445   19.1476  -18.9265   16.6661 -648.4527  -39.8563
  5.260  -18.3424   17.5635  -18.5693   18.1978  -17.6964   19.5219  -19.0144   18.2942  -18.3073   19.5218  -18.9235   16.9328 -648.8188  -40.0947
  5.270  -18.4570   17.9253  -18.6673   18.5211  -17.8476   19.9633  -19.1768   18.6597  -18.5083   19.8811  -18.9435   17.2029 -647.7958  -40.3328
  5.280  -18.6063   18.2732  -18.7958   18.8340  -18.0458   20.3946  -19.3758   19.0064  -18.7459   20.2212  -18.9877   17.4741 -645.4022  -40.5700
  5.290  -18.7880   18.6033  -18.9535   19.1336  -18.2908   20.8097  -19.6087   19.3301  -19.0177   20.5376  -19.0574   17.7442 -641.6730  -40.8058
  5.300  -18.9996   18.9123  -19.1386   19.4169  -18.5811   21.2028  -19.8722   19.6272  -19.3207   20.8268  -19.1530   18.0104 -636.6584  -41.0397
  5.310  -19.2381   19.1978  -19.3492   19.6816  -18.9143   21.5679  -20.1627   19.8950  -19.6515   21.0855  -19.2751   18.2700 -630.4225  -41.2714
  5.320  -19.5001   19.4577  -19.5832   19.9257  -19.2869   21.9000  -20.4764   20.1313  -20.0062   21.3112  -19.4232   18.5201 -623.0412  -41.5004
  5.330  -19.7827   19.6907  -19.8381   20.1475  -19.6946   22.1942  -20.8092   20.3346  -20.3809   21.5022  -19.5969   18.7578 -614.6006  -41.7262
  5.340  -20.0826   19.8958  -20.1117   20.3456  -20.1327   22.4469  -21.1573   20.5042  -20.7713   21.6572  -19.7951   18.9803 -605.1943  -41.9487
  5.350  -20.3971   20.0727  -20.4017   20.5191  -20.5956   22.6551  -21.5168   20.6398  -21.1736   21.7757  -20.0163   19.1849 -594.9213  -42.1673
  5.360  -20.7233   20.2212  -20.7056   20.6672  -21.0779   22.8167  -21.8845   20.7417  -21.5838   21.8576  -20.2586   19.3693 -583.8837  -42.3819
  5.370  -21.0588   20.3413  -21.0213   20.7892  -21.5738   22.9306  -22.2569   20.8105  -21.9982   21.9033  -20.5199   19.5313 -572.1844  -42.5921
  5.380  -21.4013   20.4334  -21.3464   20.8849  -22.0776   22.9966  -22.6313   20.8470  -22.4135   21.9136  -20.7978   19.6693 -559.9251  -42.7979
  5.390  -21.7487   20.4977  -21.6789   20.9540  -22.5839   23.0152  -23.0050   20.8524  -22.8264   21.8897  -21.0896   19.7818 -547.2045  -42.9990
  5.400  -22.0989   20.5346  -22.0167   20.9965  -23.0878   22.9877  -23.3758   20.8279  -23.2343   21.8330  -21.3927   19.8678 -534.1164  -43.1953
  5.410  -22.4503   20.5448  -22.3575   21.0127  -23.5844   22.9160  -23.7414   20.7747  -23.6346   21.7451  -21.7044   19.9267 -520.7490  -43.3866
  5.420  -22.8009   20.5288  -22.6996   21.0027  -24.0698   22.8024  -24.1001   20.6944  -24.0249   21.6276  -22.0219   19.9583 -507.1835  -43.5730
  5.430  -23.1491   20.4873  -23.0408   20.9670  -24.5402   22.6495  -24.4503   20.5883  -24.4035   21.4825  -22.3426   19.9625 -493.4934  -43.7544
  5.440  -23.4934   20.4208  -23.3795   20.9062  -24.9925   22.4605  -24.7906   20.4579  -24.7687   21.3116  -22.6638   19.9398 -479.7443  -43.9307
  5.450  -23.8321   20.3303  -23.7137   20.8210  -25.4242   22.2384  -25.1195   20.3046  -25.1189   21.1169  -22.9832   19.8908 -465.9938  -44.1019
  5.460  -24.1639   20.2165  -24.0418   20.7122  -25.8331   21.9865  -25.4360   20.1300  -25.4530   20.9003  -23.2986   19.8163 -452.2916  -44.2682
  5.470  -24.4872   20.0804  -24.3623   20.5807  -26.2177   21.7082  -25.7392   19.9355  -25.7701   20.6638  -23.6078   19.7176 -438.6795  -44.4294
  5.480  -24.8007   19.9230  -24.6736   20.4278  -26.5769   21.4067  -26.0281   19.7226  -26.0693   20.4092  -23.9091   19.5958 -425.1925  -44.5856
  5.490  -25.1033   19.7455  -24.9745   20.2544  -26.9098   21.0851  -26.3019   19.4928  -26.3502   20.1385  -24.2008   19.4523 -411.8591  -44.7370
  5.500  -25.3938   19.5489  -25.2637   20.0619  -27.2160   20.7466  -26.5602   19.2475  -26.6121   19.8534  -24.4815   19.2886 -398.7016  -44.8835
  5.510  -25.6711   19.3346  -25.5402   19.8515  -27.4956   20.3940  -26.8022   18.9883  -26.8549   19.5559  -24.7500   19.1062 -385.7376  -45.0253
  5.520  -25.9343   19.1038  -25.8029   19.6247  -27.7488   20.0300  -27.0277   18.7165  -27.0785   19.2475  -25.0053   18.9068 -372.9803  -45.1623
  5.530  -26.1826   18.8580  -26.0513   19.3827  -27.9759   19.6572  -27.2364   18.4336  -27.2828   18.9299  -25.2466   18.6919 -360.4391  -45.2948
  5.540  -26.4154   18.5984  -26.2845   19.1272  -28.1776   19.2778  -27.4280   18.1410  -27.4679   18.6047  -25.4733   18.4631 -348.1207  -45.4227
  5.550  -26.6321   18.3267  -26.5021   18.8594  -28.3548   18.8940  -27.6024   17.8402  -27.6342   18.2734  -25.6849   18.2220 -336.0292  -45.5462
  5.560  -26.8324   18.0441  -26.7037   18.5808  -28.5083   18.5075  -27.7598   17.5323  -27.7818   17.9373  -25.8812   17.9700 -324.1673  -45.6653
  5.570  -27.0159   17.7522  -26.8890   18.2928  -28.6392   18.1202  -27.9001   17.2188  -27.9113   17.5979  -26.0620   17.7087 -312.5362  -45.7802
  5.580  -27.1825   17.4522  -27.0580   17.9968  -28.7486   17.7335  -28.0237   16.9008  -28.0230   17.2562  -26.2272   17.4393 -301.1364  -45.8909
  5.590  -27.3322   17.1456  -27.2107   17.6941  -28.8375   17.3486  -28.1306   16.5795  -28.1175   16.9134  -26.3770   17.1633 -289.9677  -45.9974
  5.600  -27.4651   16.8337  -27.3471   17.3859  -28.9071   16.9668  -28.2215   16.2562  -28.1954   16.5707  -26.5115   16.8818 -279.0297  -46.1000
  5.610  -27.5814   16.5178  -27.4674   17.0735  -28.9585   16.5890  -28.2965   15.9317  -28.2573   16.2289  -26.6310   16.5959 -268.3222  -46.1986
  5.620  -27.6814   16.1990  -27.5720   16.7581  -28.9929   16.2159  -28.3562   15.6071  -28.3040   15.8889  -26.7358   16.3069 -257.8447  -46.2933
  5.630  -27.7653   15.8785  -27.6611   16.4406  -29.0114   15.8483  -28.4012   15.2833  -28.3360   15.5514  -26.8262   16.0155 -247.5972  -46.3843
  5.640  -27.8338   15.5574  -27.7351   16.1221  -29.0150   15.4868  -28.4320   14.9611  -28.3540   15.2173  -26.9027   15.7228 -237.5797  -46.4716
  5.650  -27.8873   15.2365  -27.7946   15.8035  -29.0047   15.1318  -28.4493   14.6412  -28.3589   14.8870  -26.9657   15.4296 -227.7927  -46.5553
  5.660  -27.9263   14.9168  -27.8400   15.4857  -28.9816   14.7836  -28.4535   14.3244  -28.3512   14.5612  -27.0158   15.1366 -218.2367  -46.6355
  5.670  -27.9514   14.5992  -27.8719   15.1695  -28.9465   14.4426  -28.4454   14.0113  -28.3317   14.2402  -27.0533   14.8446 -208.9125  -46.7123
  5.680  -27.9633   14.2843  -27.8908   14.8554  -28.9004   14.1090  -28.4256   13.7023  -28.3012   13.9246  -27.0789   14.5541 -199.8211  -46.7857
  5.690  -27.9626   13.9727  -27.8974   14.5443  -28.8440   13.7830  -28.3949   13.3980  -28.2602   13.6147  -27.0930   14.2658 -190.9635  -46.8559
  5.700  -27.9500   13.6651  -27.8922   14.2366  -28.7783   13.4645  -28.3537   13.0987  -28.2095   13.3107  -27.0962   13.9801 -182.3409  -46.9229
  5.710  -27.9260   13.3619  -27.8758   13.9328  -28.7038   13.1538  -28.3029   12.8048  -28.1498   13.0128  -27.0890   13.6975 -173.9545  -46.9868
  5.720  -27.8915   13.0636  -27.8489   13.6334  -28.6214   12.8508  -28.2429   12.5166  -28.0816   12.7213  -27.0719   13.4183 -165.8052  -47.0478
  5.730  -27.8470   12.7706  -27.8120   13.3387  -28.5317   12.5555  -28.1745   12.2343  -28.0055   12.4363  -27.0455   13.1430 -157.8939  -47.1058
  5.740  -27.7932   12.4831  -27.7658   13.0491  -28.4352   12.2678  -28.0982   11.9580  -27.9223   12.1579  -27.0103   12.8719 -150.2215  -47.1610
  5.750  -27.7307   12.2014  -27.7108   12.7649  -28.3326   11.9878  -28.0146   11.6880  -27.8323   11.8862  -26.9668   12.6051 -142.7883  -47.2135
  5.760  -27.6602   11.9257  -27.6476   12.4862  -28.2244   11.7153  -27.9244   11.4243  -27.7362   11.6211  -26.9155   12.3430 -135.5946  -47.2633
  5.770  -27.5821   11.6561  -27.5768   12.2132  -28.1111   11.4502  -27.8279   11.1670  -27.6345   11.3628  -26.8568   12.0856 -128.6403  -47.3106
  5.780  -27.4972   11.3928  -27.4989   11.9461  -27.9931   11.1925  -27.7258   10.9161  -27.5276   11.1111  -26.7913   11.8333 -121.9250  -47.3554
  5.790  -27.4059   11.1359  -27.4144   11.6850  -27.8710   10.9419  -27.6185   10.6717  -27.4161   10.8660  -26.7195   11.5860 -115.4478  -47.3978
  5.800  -27.3088   10.8853  -27.3239   11.4300  -27.7451   10.6984  -27.5064   10.4336  -27.3002   10.6275  -26.6416   11.3440 -109.2075  -47.4380
  5.810  -27.2063   10.6411  -27.2278   11.1811  -27.6158   10.4617  -27.3901   10.2019  -27.1805   10.3955  -26.5582   11.1071 -103.2025  -47.4759
  5.820  -27.0989   10.4033  -27.1265   10.9382  -27.4834   10.2319  -27.2699    9.9765  -27.0574   10.1699  -26.4697   10.8756  -97.4308  -47.5117
  5.830  -26.9872   10.1718  -27.0205   10.7015  -27.3483   10.0087  -27.1462    9.7572  -26.9311    9.9505  -26.3765   10.6495  -91.8900  -47.5455
  5.840  -26.8714    9.9465  -26.9103   10.4709  -27.2108    9.7919  -27.0194    9.5441  -26.8020    9.7373  -26.2790   10.4286  -86.5774  -47.5773
  5.850  -26.7520    9.7275  -26.7962   10.2463  -27.0712    9.5814  -26.8898    9.3370  -26.6705    9.5302  -26.1774   10.2131  -81.4897  -47.6072
  5.860  -26.6294    9.5146  -26.6785   10.0276  -26.9298    9.3771  -26.7578    9.1358  -26.5368    9.3290  -26.0722   10.0029  -76.6233  -47.6354
  5.870  -26.5039    9.3076  -26.5577    9.8149  -26.7868    9.1788  -26.6236    8.9403  -26.4012    9.1335  -25.9636    9.7979  -71.9743  -47.6618
  5.880  -26.3758    9.1066  -26.4340    9.6079  -26.6424    8.9863  -26.4875    8.7505  -26.2640    8.9437  -25.8520    9.5981  -67.5386  -47.6866
  5.890  -26.2454    8.9113  -26.3078    9.4066  -26.4969    8.7994  -26.3497    8.5662  -26.1253    8.7594  -25.7377    9.4035  -63.3115  -47.7099
  5.900  -26.1131    8.7217  -26.1793    9.2110  -26.3504    8.6181  -26.2106    8.3872  -25.9855    8.5805  -25.6209    9.2139  -59.2881  -47.7317
  5.910  -25.9790    8.5375  -26.0488    9.0208  -26.2032    8.4421  -26.0702    8.2135  -25.8447    8.4067  -25.5019    9.0293  -55.4635  -47.7521
  5.920  -25.8434    8.3587  -25.9166    8.8359  -26.0554    8.2712  -25.9289    8.0448  -25.7030    8.2380  -25.3809    8.8496  -51.8322  -47.7711
  5.930  -25.7066    8.1852  -25.7829    8.6563  -25.9071    8.1054  -25.7869    7.8811  -25.5608    8.0742  -25.2581    8.6747  -48.3888  -47.7889
  5.940  -25.5687    8.0167  -25.6479    8.4818  -25.7586    7.9445  -25.6442    7.7222  -25.4180    7.9152  -25.1339    8.5044  -45.1275  -47.8055
  5.950  -25.4300    7.8532  -25.5119    8.3123  -25.6099    7.7883  -25.5010    7.5679  -25.2750    7.7608  -25.0083    8.3388  -42.0425  -47.8210
  5.960  -25.2906    7.6945  -25.3749    8.1476  -25.4613    7.6367  -25.3575    7.4182  -25.1317    7.6109  -24.8815    8.1777  -39.1278  -47.8353
  5.970  -25.1507    7.5404  -25.2372    7.9876  -25.3127    7.4895  -25.2139    7.2728  -24.9884    7.4653  -24.7538    8.0209  -36.3774  -47.8487
  5.980  -25.0104    7.3909  -25.0990    7.8322  -25.1643    7.3466  -25.0702    7.1317  -24.8452    7.3240  -24.6252    7.8684  -33.7852  -47.8611
  5.990  -24.8698    7.2457  -24.9603    7.6813  -25.0162    7.2078  -24.9266    6.9946  -24.7021    7.1867  -24.4960    7.7201  -31.3450  -47.8726
  6.000  -24.7292    7.1048  -24.8214    7.5346  -24.8685    7.0731  -24.7832    6.8616  -24.5593    7.0534  -24.3663    7.5758  -29.0508  -47.8833
  6.010  -24.5886    6.9680  -24.6824    7.3922  -24.7213    6.9422  -24.6400    6.7324  -24.4168    6.9238  -24.2361    7.4355  -26.8965  -47.8932
  6.020  -24.4481    6.8352  -24.5433    7.2538  -24.5746    6.8151  -24.4972    6.6069  -24.2747    6.7980  -24.1057    7.2990  -24.8758  -47.9023
  6.030  -24.3078    6.7062  -24.4042    7.1193  -24.4286    6.6917  -24.3548    6.4850  -24.1331    6.6757  -23.9751    7.1662  -22.9829  -47.9108
  6.040  -24.1678    6.5810  -24.2654    6.9887  -24.2832    6.5717  -24.2129    6.3665  -23.9921    6.5569  -23.8445    7.0371  -21.2117  -47.9186
  6.050  -24.0282    6.4593  -24.1268    6.8617  -24.1385    6.4552  -24.0716    6.2515  -23.8516    6.4414  -23.7139    6.9114  -19.5564  -47.9258
  6.060  -23.8891    6.3412  -23.9885    6.7383  -23.9946    6.3419  -23.9309    6.1397  -23.7119    6.3292  -23.5834    6.7892  -18.0113  -47.9324
  6.070  -23.7505    6.2264  -23.8507    6.6184  -23.8515    6.2318  -23.7909    6.0310  -23.5729    6.2201  -23.4531    6.6703  -16.5708  -47.9385
  6.080  -23.6125    6.1148  -23.7133    6.5018  -23.7093    6.1247  -23.6516    5.9254  -23.4346    6.1139  -23.3230    6.5546  -15.2294  -47.9441
  6.090  -23.4751    6.0064  -23.5765    6.3885  -23.5680    6.0207  -23.5131    5.8227  -23.2971    6.0107  -23.1933    6.4420  -13.9817  -47.9492
  6.100  -23.3384    5.9011  -23.4403    6.2783  -23.4276    5.9195  -23.3754    5.7228  -23.1605    5.9103  -23.0640    6.3324  -12.8226  -47.9539
  6.110  -23.2024    5.7987  -23.3047    6.1711  -23.2881    5.8210  -23.2385    5.6257  -23.0247    5.8127  -22.9351    6.2258  -11.7471  -47.9582
  6.120  -23.0672    5.6991  -23.1699    6.0669  -23.1496    5.7252  -23.1025    5.5312  -22.8899    5.7176  -22.8068    6.1219  -10.7503  -47.9622
  6.130  -22.9328    5.6022  -23.0357    5.9655  -23.0122    5.6320  -22.9674    5.4393  -22.7559    5.6251  -22.6790    6.0209   -9.8276  -47.9658
  6.140  -22.7993    5.5080  -22.9024    5.8668  -22.8757    5.5413  -22.8333    5.3499  -22.6229    5.5351  -22.5517    5.9224   -8.9744  -47.9691
  6.150  -22.6666    5.4164  -22.7698    5.7708  -22.7403    5.4531  -22.7000    5.2628  -22.4908    5.4474  -22.4252    5.8266   -8.1864  -47.9721
  6.160  -22.5348    5.3272  -22.6381    5.6773  -22.6059    5.3671  -22.5678    5.1781  -22.3598    5.3621  -22.2992    5.7332   -7.4596  -47.9748
  6.170  -22.4040    5.2405  -22.5072    5.5863  -22.4726    5.2834  -22.4365    5.0956  -22.2297    5.2789  -22.1740    5.6423   -6.7900  -47.9773
  6.180  -22.2740    5.1560  -22.3772    5.4978  -22.3403    5.2019  -22.3061    5.0152  -22.1006    5.1979  -22.0495    5.5537   -6.1738  -47.9796
  6.190  -22.1450    5.0738  -22.2482    5.4115  -22.2092    5.1225  -22.1768    4.9370  -21.9725    5.1190  -21.9257    5.4673   -5.6073  -47.9817
  6.200  -22.0170    4.9937  -22.1200    5.3275  -22.0791    5.0451  -22.0485    4.8607  -21.8454    5.0421  -21.8027    5.3832   -5.0873  -47.9835
  6.210  -21.8899    4.9158  -21.9928    5.2456  -21.9501    4.9697  -21.9212    4.7864  -21.7193    4.9671  -21.6805    5.3011   -4.6105  -47.9852
  6.220  -21.7638    4.8398  -21.8665    5.1658  -21.8221    4.8962  -21.7949    4.7140  -21.5943    4.8940  -21.5592    5.2211   -4.1737  -47.9868
  6.230  -21.6387    4.7658  -21.7412    5.0881  -21.6953    4.8245  -21.6697    4.6435  -21.4703    4.8227  -21.4386    5.1432   -3.7742  -47.9882
  6.240  -21.5146    4.6937  -21.6168    5.0123  -21.5695    4.7547  -21.5455    4.5746  -21.3473    4.7532  -21.3188    5.0671   -3.4091  -47.9894
  6.250  -21.3915    4.6233  -21.4934    4.9385  -21.4449    4.6865  -21.4223    4.5075  -21.2254    4.6854  -21.2000    4.9929   -3.0759  -47.9905
  6.260  -21.2694    4.5548  -21.3710    4.8664  -21.3213    4.6200  -21.3001    4.4421  -21.1045    4.6192  -21.0819    4.9205   -2.7722  -47.9916
  6.270  -21.1483    4.4880  -21.2495    4.7961  -21.1988    4.5551  -21.1790    4.3782  -20.9846    4.5547  -20.9648    4.8499   -2.4957  -47.9925
  6.280  -21.0282    4.4228  -21.1291    4.7276  -21.0774    4.4918  -21.0588    4.3159  -20.8657    4.4916  -20.8485    4.7810   -2.2442  -47.9933
  6.290  -20.9091    4.3592  -21.0096    4.6607  -20.9570    4.4300  -20.9397    4.2551  -20.7478    4.4301  -20.7330    4.7137   -2.0158  -47.9940
  6.300  -20.7910    4.2972  -20.8911    4.5955  -20.8377    4.3697  -20.8217    4.1958  -20.6310    4.3700  -20.6185    4.6480   -1.8086  -47.9947
  6.310  -20.6739    4.2366  -20.7736    4.5317  -20.7195    4.3108  -20.7046    4.1378  -20.5152    4.3113  -20.5048    4.5838   -1.6209  -47.9953
  6.320  -20.5578    4.1775  -20.6571    4.4696  -20.6023    4.2533  -20.5885    4.0812  -20.4003    4.2540  -20.3920    4.5212   -1.4510  -47.9958
  6.330  -20.4427    4.1199  -20.5416    4.4088  -20.4862    4.1971  -20.4735    4.0260  -20.2865    4.1980  -20.2801    4.4600   -1.2974  -47.9963
  6.340  -20.3286    4.0635  -20.4270    4.3495  -20.3711    4.1421  -20.3594    3.9720  -20.1737    4.1432  -20.1691    4.4002   -1.1588  -47.9967
  6.350  -20.2154    4.0085  -20.3134    4.2916  -20.2571    4.0885  -20.2464    3.9192  -20.0618    4.0897  -20.0590    4.3418   -1.0337  -47.9971
  6.360  -20.1033    3.9548  -20.2008    4.2350  -20.1440    4.0360  -20.1343    3.8677  -19.9510    4.0374  -19.9497    4.2847   -0.9211  -47.9975
  6.370  -19.9921    3.9023  -20.0892    4.1796  -20.0320    3.9847  -20.0232    3.8173  -19.8411    3.9863  -19.8414    4.2289   -0.8198  -47.9978
  6.380  -19.8818    3.8510  -19.9785    4.1256  -19.9210    3.9346  -19.9130    3.7681  -19.7322    3.9363  -19.7339    4.1743   -0.7288  -47.9980
  6.390  -19.7726    3.8008  -19.8687    4.0727  -19.8110    3.8856  -19.8038    3.7199  -19.6242    3.8873  -19.6273    4.1210   -0.6472  -47.9983
  6.400  -19.6643    3.7518  -19.7599    4.0210  -19.7019    3.8376  -19.6956    3.6728  -19.5172    3.8395  -19.5215    4.0688   -0.5740  -47.9985
  6.410  -19.5569    3.7039  -19.6520    3.9705  -19.5939    3.7907  -19.5883    3.6267  -19.4111    3.7927  -19.4166    4.0177   -0.5085  -47.9987
  6.420  -19.4504    3.6571  -19.5451    3.9211  -19.4868    3.7448  -19.4820    3.5817  -19.3059    3.7468  -19.3126    3.9678   -0.4499  -47.9988
  6.430  -19.3449    3.6112  -19.4391    3.8727  -19.3806    3.6998  -19.3766    3.5376  -19.2017    3.7020  -19.2095    3.9189   -0.3976  -47.9990
  6.440  -19.2403    3.5664  -19.3340    3.8254  -19.2754    3.6559  -19.2721    3.4944  -19.0983    3.6581  -19.1071    3.8711   -0.3510  -47.9991
  6.450  -19.1366    3.5225  -19.2298    3.7791  -19.1712    3.6128  -19.1685    3.4522  -18.9959    3.6151  -19.0057    3.8243   -0.3095  -47.9992
  6.460  -19.0338    3.4796  -19.1265    3.7338  -19.0679    3.5706  -19.0658    3.4108  -18.8944    3.5730  -18.9050    3.7785   -0.2725  -47.9993
  6.470  -18.9319    3.4376  -19.0241    3.6894  -18.9654    3.5293  -18.9640    3.3703  -18.7937    3.5317  -18.8052    3.7336   -0.2397  -47.9994
  6.480  -18.8309    3.3964  -18.9226    3.6460  -18.8639    3.4889  -18.8631    3.3307  -18.6940    3.4913  -18.7062    3.6896   -0.2106  -47.9995
  6.490  -18.7308    3.3562  -18.8220    3.6034  -18.7633    3.4493  -18.7631    3.2919  -18.5950    3.4517  -18.6081    3.6466   -0.1848  -47.9995
  6.500  -18.6315    3.3167  -18.7222    3.5618  -18.6636    3.4104  -18.6639    3.2538  -18.4970    3.4129  -18.5107    3.6044   -0.1619  -47.9996
  6.510  -18.5331    3.2781  -18.6233    3.5209  -18.5648    3.3724  -18.5656    3.2166  -18.3998    3.3749  -18.4142    3.5631   -0.1417  -47.9997
  6.520  -18.4355    3.2403  -18.5253    3.4809  -18.4668    3.3351  -18.4681    3.1800  -18.3034    3.3376  -18.3184    3.5226   -0.1239  -47.9997
  6.530  -18.3388    3.2032  -18.4280    3.4418  -18.3697    3.2985  -18.3715    3.1442  -18.2079    3.3011  -18.2235    3.4829   -0.1082  -47.9997
  6.540  -18.2429    3.1669  -18.3317    3.4033  -18.2734    3.2627  -18.2757    3.1091  -18.1132    3.2653  -18.1293    3.4440   -0.0944  -47.9998
  6.550  -18.1478    3.1313  -18.2361    3.3657  -18.1780    3.2275  -18.1807    3.0747  -18.0193    3.2301  -18.0359    3.4059   -0.0822  -47.9998
  6.560  -18.0535    3.0964  -18.1413    3.3288  -18.0834    3.1930  -18.0865    3.0410  -17.9262    3.1956  -17.9433    3.3685   -0.0715  -47.9998
  6.570  -17.9601    3.0621  -18.0474    3.2926  -17.9896    3.1592  -17.9932    3.0079  -17.8338    3.1618  -17.8514    3.3318   -0.0621  -47.9999
  6.580  -17.8674    3.0286  -17.9542    3.2571  -17.8966    3.1260  -17.9006    2.9755  -17.7423    3.1286  -17.7603    3.2958   -0.0539  -47.9999
  6.590  -17.7755    2.9957  -17.8619    3.2223  -17.8044    3.0935  -17.8088    2.9436  -17.6515    3.0961  -17.6699    3.2606   -0.0467  -47.9999
  6.600  -17.6844    2.9634  -17.7703    3.1881  -17.7130    3.0615  -17.7177    2.9124  -17.5615    3.0641  -17.5803    3.2259   -0.0405  -47.9999
  6.610  -17.5940    2.9318  -17.6795    3.1546  -17.6224    3.0302  -17.6275    2.8818  -17.4723    3.0327  -17.4914    3.1920   -0.0350  -47.9999
  6.620  -17.5045    2.9007  -17.5894    3.1217  -17.5325    2.9994  -17.5379    2.8517  -17.3838    3.0019  -17.4032    3.1586   -0.0302  -47.9999
  6.630  -17.4156    2.8703  -17.5001    3.0894  -17.4434    2.9691  -17.4492    2.8222  -17.2960    2.9717  -17.3158    3.1259   -0.0260  -47.9999
  6.640  -17.3275    2.8404  -17.4116    3.0577  -17.3551    2.9395  -17.3611    2.7932  -17.2090    2.9420  -17.2290    3.0938   -0.0224  -48.0000
  6.650  -17.2402    2.8110  -17.3238    3.0266  -17.2675    2.9103  -17.2738    2.7647  -17.1227    2.9128  -17.1430    3.0622   -0.0193  -48.0000
  6.660  -17.1535    2.7822  -17.2367    2.9961  -17.1806    2.8817  -17.1873    2.7368  -17.0371    2.8842  -17.0576    3.0312   -0.0166  -48.0000
  6.670  -17.0676    2.7539  -17.1503    2.9661  -17.0945    2.8536  -17.1014    2.7094  -16.9522    2.8560  -16.9729    3.0008   -0.0142  -48.0000
  6.680  -16.9824    2.7261  -17.0646    2.9366  -17.0090    2.8259  -17.0162    2.6824  -16.8680    2.8284  -16.8889    2.9709   -0.0122  -48.0000
  6.690  -16.8978    2.6988  -16.9797    2.9077  -16.9243    2.7988  -16.9317    2.6559  -16.7845    2.8012  -16.8056    2.9416   -0.0104  -48.0000
  6.700  -16.8140    2.6720  -16.8954    2.8793  -16.8403    2.7721  -16.8479    2.6299  -16.7017    2.7745  -16.7229    2.9128   -0.0089  -48.0000
  6.710  -16.7308    2.6457  -16.8118    2.8513  -16.7569    2.7459  -16.7648    2.6044  -16.6195    2.7482  -16.6409    2.8844   -0.0076  -48.0000
  6.720  -16.6484    2.6199  -16.7289    2.8239  -16.6743    2.7201  -16.6824    2.5793  -16.5380    2.7224  -16.5596    2.8566   -0.0065  -48.0000
  6.730  -16.5665    2.5945  -16.6467    2.7969  -16.5923    2.6947  -16.6006    2.5546  -16.4572    2.6970  -16.4788    2.8292   -0.0055  -48.0000
  6.740  -16.4854    2.5695  -16.5651    2.7704  -16.5110    2.6698  -16.5195    2.5303  -16.3770    2.6721  -16.3988    2.8023   -0.0047  -48.0000
  6.750  -16.4049    2.5449  -16.4842    2.7443  -16.4303    2.6453  -16.4390    2.5064  -16.2974    2.6475  -16.3193    2.7759   -0.0040  -48.0000
  6.760  -16.3250    2.5208  -16.4039    2.7187  -16.3503    2.6212  -16.3592    2.4830  -16.2185    2.6234  -16.2405    2.7499   -0.0034  -48.0000
  6.770  -16.2458    2.4971  -16.3243    2.6935  -16.2709    2.5975  -16.2800    2.4599  -16.1402    2.5997  -16.1622    2.7243   -0.0029  -48.0000
  6.780  -16.1672    2.4738  -16.2453    2.6688  -16.1922    2.5742  -16.2014    2.4373  -16.0625    2.5763  -16.0846    2.6992   -0.0024  -48.0000
  6.790  -16.0892    2.4509  -16.1669    2.6444  -16.1140    2.5512  -16.1235    2.4149  -15.9854    2.5533  -16.0076    2.6744   -0.0020  -48.0000
  6.800  -16.0118    2.4283  -16.0892    2.6204  -16.0365    2.5287  -16.0461    2.3930  -15.9090    2.5307  -15.9312    2.6501   -0.0017  -48.0000
  6.810  -15.9351    2.4061  -16.0120    2.5968  -15.9596    2.5065  -15.9694    2.3714  -15.8331    2.5085  -15.8554    2.6262   -0.0015  -48.0000
  6.820  -15.8589    2.3843  -15.9355    2.5736  -15.8834    2.4846  -15.8932    2.3502  -15.7578    2.4866  -15.7801    2.6026   -0.0012  -48.0000
  6.830  -15.7834    2.3629  -15.8595    2.5508  -15.8077    2.4631  -15.8176    2.3293  -15.6831    2.4650  -15.7054    2.5795   -0.0010  -48.0000
  6.840  -15.7084    2.3418  -15.7842    2.5284  -15.7326    2.4419  -15.7427    2.3087  -15.6090    2.4438  -15.6313    2.5567   -0.0009  -48.0000
  6.850  -15.6340    2.3210  -15.7094    2.5062  -15.6580    2.4210  -15.6683    2.2885  -15.5354    2.4229  -15.5578    2.5342   -0.0007  -48.0000
  6.860  -15.5601    2.3005  -15.6352    2.4845  -15.5841    2.4005  -15.5944    2.2685  -15.4624    2.4023  -15.4848    2.5121   -0.0006  -48.0000
  6.870  -15.4868    2.2804  -15.5615    2.4631  -15.5107    2.3803  -15.5211    2.2489  -15.3899    2.3821  -15.4123    2.4904   -0.0005  -48.0000
  6.880  -15.4141    2.2606  -15.4885    2.4420  -15.4379    2.3604  -15.4484    2.2296  -15.3180    2.3621  -15.3404    2.4690   -0.0004  -48.0000
  6.890  -15.3420    2.2411  -15.4159    2.4212  -15.3656    2.3408  -15.3762    2.2106  -15.2467    2.3425  -15.2690    2.4479   -0.0004  -48.0000
  6.900  -15.2703    2.2219  -15.3440    2.4008  -15.2939    2.3215  -15.3046    2.1919  -15.1759    2.3231  -15.1982    2.4272   -0.0003  -48.0000
  6.910  -15.1993    2.2030  -15.2726    2.3806  -15.2227    2.3024  -15.2335    2.1734  -15.1056    2.3040  -15.1279    2.4067   -0.0002  -48.0000
  6.920  -15.1287    2.1844  -15.2017    2.3608  -15.1521    2.2837  -15.1630    2.1553  -15.0358    2.2852  -15.0581    2.3866   -0.0002  -48.0000
  6.930  -15.0587    2.1661  -15.1313    2.3413  -15.0819    2.2652  -15.0929    2.1374  -14.9665    2.2667  -14.9888    2.3667   -0.0002  -48.0000
  6.940  -14.9892    2.1480  -15.0615    2.3220  -15.0123    2.2470  -15.0234    2.1198  -14.8978    2.2485  -14.9200    2.3472   -0.0001  -48.0000
  6.950  -14.9202    2.1302  -14.9922    2.3030  -14.9433    2.2291  -14.9544    2.1024  -14.8296    2.2305  -14.8517    2.3280   -0.0001  -48.0000
  6.960  -14.8517    2.1127  -14.9233    2.2844  -14.8747    2.2114  -14.8859    2.0853  -14.7618    2.2128  -14.7840    2.3090   -0.0001  -48.0000
  6.970  -14.7837    2.0955  -14.8551    2.2660  -14.8066    2.1940  -14.8179    2.0684  -14.6946    2.1953  -14.7167    2.2903   -0.0001  -48.0000
  6.980  -14.7162    2.0785  -14.7873    2.2478  -14.7391    2.1768  -14.7504    2.0518  -14.6278    2.1781  -14.6499    2.2719   -0.0001  -48.0000
  6.990  -14.6492    2.0617  -14.7200    2.2299  -14.6720    2.1599  -14.6834    2.0355  -14.5615    2.1611  -14.5835    2.2537   -0.0001  -48.0000
  7.000  -14.5827    2.0452  -14.6531    2.2123  -14.6054    2.1432  -14.6168    2.0193  -14.4957    2.1444  -14.5177    2.2358   -0.0000  -48.0000
  7.010  -14.5167    2.0289  -14.5868    2.1949  -14.5393    2.1267  -14.5508    2.0034  -14.4304    2.1279  -14.4523    2.2182   -0.0000  -48.0000
  7.020  -14.4512    2.0129  -14.5210    2.1778  -14.4737    2.1105  -14.4852    1.9877  -14.3656    2.1116  -14.3874    2.2008   -0.0000  -48.0000
  7.030  -14.3861    1.9971  -14.4556    2.1609  -14.4085    2.0945  -14.4201    1.9723  -14.3012    2.0956  -14.3229    2.1837   -0.0000  -48.0000
  7.040  -14.3214    1.9815  -14.3907    2.1443  -14.3438    2.0787  -14.3554    1.9570  -14.2372    2.0798  -14.2589    2.1668   -0.0000  -48.0000
  7.050  -14.2573    1.9661  -14.3262    2.1278  -14.2796    2.0631  -14.2912    1.9420  -14.1737    2.0642  -14.1954    2.1501   -0.0000  -48.0000
  7.060  -14.1936    1.9509  -14.2622    2.1116  -14.2158    2.0477  -14.2275    1.9272  -14.1107    2.0488  -14.1323    2.1337   -0.0000  -48.0000
  7.070  -14.1303    1.9360  -14.1987    2.0957  -14.1525    2.0326  -14.1642    1.9126  -14.0481    2.0336  -14.0696    2.1175   -0.0000  -48.0000
  7.080  -14.0675    1.9213  -14.1356    2.0799  -14.0896    2.0176  -14.1013    1.8981  -13.9859    2.0186  -14.0073    2.1015   -0.0000  -48.0000
  7.090  -14.0051    1.9067  -14.0730    2.0644  -14.0272    2.0029  -14.0389    1.8839  -13.9242    2.0038  -13.9455    2.0857   -0.0000  -48.0000
  7.100  -13.9432    1.8924  -14.0107    2.0490  -13.9652    1.9883  -13.9769    1.8699  -13.8629    1.9892  -13.8841    2.0701   -0.0000  -48.0000
  7.110  -13.8817    1.8783  -13.9490    2.0339  -13.9036    1.9740  -13.9154    1.8560  -13.8020    1.9748  -13.8232    2.0548   -0.0000  -48.0000
  7.120  -13.8206    1.8643  -13.8876    2.0190  -13.8424    1.9598  -13.8542    1.8424  -13.7415    1.9606  -13.7626    2.0396   -0.0000  -48.0000
  7.130  -13.7599    1.8505  -13.8267    2.0043  -13.7817    1.9458  -13.7935    1.8289  -13.6815    1.9465  -13.7025    2.0247   -0.0000  -48.0000
  7.140  -13.6996    1.8370  -13.7662    1.9897  -13.7214    1.9320  -13.7332    1.8156  -13.6218    1.9327  -13.6428    2.0099   -0.0000  -48.0000
  7.150  -13.6398    1.8236  -13.7061    1.9754  -13.6615    1.9183  -13.6733    1.8025  -13.5626    1.9190  -13.5834    1.9954   -0.0000  -48.0000
  7.160  -13.5804    1.8103  -13.6464    1.9612  -13.6020    1.9049  -13.6138    1.7895  -13.5038    1.9055  -13.5245    1.9810   -0.0000  -48.0000
  7.170  -13.5213    1.7973  -13.5871    1.9473  -13.5429    1.8916  -13.5548    1.7767  -13.4453    1.8922  -13.4660    1.9668   -0.0000  -48.0000
  7.180  -13.4627    1.7844  -13.5282    1.9335  -13.4842    1.8785  -13.4961    1.7641  -13.3873    1.8790  -13.4078    1.9528   -0.0000  -48.0000
  7.190  -13.4044    1.7717  -13.4698    1.9198  -13.4259    1.8655  -13.4378    1.7517  -13.3296    1.8661  -13.3501    1.9390   -0.0000  -48.0000
  7.200  -13.3466    1.7592  -13.4117    1.9064  -13.3680    1.8527  -13.3799    1.7394  -13.2723    1.8532  -13.2927    1.9254   -0.0000  -48.0000
  7.210  -13.2891    1.7468  -13.3540    1.8931  -13.3104    1.8401  -13.3223    1.7272  -13.2154    1.8406  -13.2357    1.9119   -0.0000  -48.0000
  7.220  -13.2320    1.7346  -13.2966    1.8800  -13.2533    1.8276  -13.2652    1.7152  -13.1589    1.8280  -13.1791    1.8986   -0.0000  -48.0000
  7.230  -13.1753    1.7225  -13.2397    1.8671  -13.1965    1.8153  -13.2084    1.7034  -13.1027    1.8157  -13.1228    1.8855   -0.0000  -48.0000
  7.240  -13.1189    1.7106  -13.1831    1.8543  -13.1401    1.8031  -13.1520    1.6917  -13.0469    1.8035  -13.0669    1.8725   -0.0000  -48.0000
  7.250  -13.0630    1.6988  -13.1270    1.8417  -13.0841    1.7911  -13.0960    1.6802  -12.9915    1.7914  -13.0114    1.8597   -0.0000  -48.0000
  7.260  -13.0073    1.6872  -13.0711    1.8292  -13.0284    1.7792  -13.0403    1.6688  -12.9364    1.7795  -12.9562    1.8471   -0.0000  -48.0000
  7.270  -12.9521    1.6757  -13.0157    1.8169  -12.9731    1.7675  -12.9850    1.6575  -12.8817    1.7677  -12.9014    1.8346   -0.0000  -48.0000
  7.280  -12.8972    1.6644  -12.9606    1.8047  -12.9182    1.7559  -12.9301    1.6464  -12.8273    1.7561  -12.8470    1.8222   -0.0000  -48.0000
  7.290  -12.8426    1.6532  -12.9058    1.7927  -12.8636    1.7444  -12.8755    1.6354  -12.7733    1.7446  -12.7929    1.8100   -0.0000  -48.0000
  7.300  -12.7884    1.6421  -12.8514    1.7808  -12.8093    1.7331  -12.8212    1.6246  -12.7196    1.7333  -12.7391    1.7980   -0.0000  -48.0000
  7.310  -12.7346    1.6312  -12.7974    1.7691  -12.7554    1.7219  -12.7673    1.6138  -12.6663    1.7221  -12.6857    1.7861   -0.0000  -48.0000
  7.320  -12.6811    1.6204  -12.7437    1.7575  -12.7019    1.7109  -12.7137    1.6032  -12.6133    1.7110  -12.6326    1.7743   -0.0000  -48.0000
  7.330  -12.6279    1.6098  -12.6904    1.7461  -12.6487    1.7000  -12.6605    1.5928  -12.5606    1.7000  -12.5798    1.7627   -0.0000  -48.0000
  7.340  -12.5751    1.5992  -12.6373    1.7347  -12.5958    1.6892  -12.6076    1.5824  -12.5083    1.6892  -12.5274    1.7513   -0.0000  -48.0000
  7.350  -12.5226    1.5888  -12.5847    1.7236  -12.5432    1.6785  -12.5551    1.5722  -12.4563    1.6785  -12.4753    1.7399   -0.0000  -48.0000
  7.360  -12.4704    1.5786  -12.5323    1.7125  -12.4910    1.6680  -12.5028    1.5621  -12.4046    1.6679  -12.4235    1.7287   -0.0000  -48.0000
  7.370  -12.4186    1.5684  -12.4803    1.7016  -12.4391    1.6575  -12.4509    1.5522  -12.3532    1.6575  -12.3720    1.7176   -0.0000  -48.0000
  7.380  -12.3670    1.5584  -12.4286    1.6908  -12.3875    1.6472  -12.3993    1.5423  -12.3022    1.6471  -12.3209    1.7067   -0.0000  -48.0000
  7.390  -12.3158    1.5484  -12.3772    1.6801  -12.3363    1.6371  -12.3481    1.5326  -12.2514    1.6369  -12.2701    1.6959   -0.0000  -48.0000
  7.400  -12.2649    1.5386  -12.3262    1.6696  -12.2853    1.6270  -12.2971    1.5229  -12.2010    1.6268  -12.2195    1.6852   -0.0000  -48.0000
  7.410  -12.2143    1.5290  -12.2754    1.6591  -12.2347    1.6170  -12.2465    1.5134  -12.1509    1.6168  -12.1693    1.6746   -0.0000  -48.0000
  7.420  -12.1640    1.5194  -12.2250    1.6488  -12.1844    1.6072  -12.1961    1.5040  -12.1011    1.6069  -12.1194    1.6642   -0.0000  -48.0000
  7.430  -12.1141    1.5099  -12.1749    1.6386  -12.1344    1.5974  -12.1461    1.4947  -12.0515    1.5972  -12.0698    1.6538   -0.0000  -48.0000
  7.440  -12.0644    1.5006  -12.1250    1.6285  -12.0846    1.5878  -12.0964    1.4855  -12.0023    1.5875  -12.0205    1.6436   -0.0000  -48.0000
  7.450  -12.0150    1.4913  -12.0755    1.6186  -12.0352    1.5783  -12.0469    1.4764  -11.9534    1.5780  -11.9715    1.6335   -0.0000  -48.0000
  7.460  -11.9660    1.4822  -12.0263    1.6087  -11.9861    1.5689  -11.9978    1.4674  -11.9048    1.5685  -11.9228    1.6235   -0.0000  -48.0000
  7.470  -11.9172    1.4731  -11.9774    1.5990  -11.9373    1.5596  -11.9489    1.4585  -11.8564    1.5592  -11.8743    1.6137   -0.0000  -48.0000
  7.480  -11.8687    1.4642  -11.9288    1.5893  -11.8887    1.5504  -11.9004    1.4497  -11.8084    1.5500  -11.8262    1.6039   -0.0000  -48.0000
  7.490  -11.8205    1.4554  -11.8804    1.5798  -11.8405    1.5413  -11.8521    1.4411  -11.7606    1.5408  -11.7783    1.5943   -0.0000  -48.0000
  7.500  -11.7725    1.4466  -11.8324    1.5704  -11.7925    1.5323  -11.8041    1.4325  -11.7131    1.5318  -11.7307    1.5847   -0.0000  -48.0000
  7.510  -11.7249    1.4380  -11.7846    1.5611  -11.7448    1.5233  -11.7564    1.4240  -11.6659    1.5228  -11.6834    1.5753   -0.0000  -48.0000
  7.520  -11.6775    1.4294  -11.7371    1.5519  -11.6974    1.5145  -11.7090    1.4156  -11.6189    1.5140  -11.6364    1.5659   -0.0000  -48.0000
  7.530  -11.6304    1.4210  -11.6899    1.5427  -11.6503    1.5058  -11.6619    1.4073  -11.5723    1.5053  -11.5896    1.5567   -0.0000  -48.0000
  7.540  -11.5836    1.4126  -11.6430    1.5337  -11.6034    1.4972  -11.6150    1.3990  -11.5259    1.4966  -11.5432    1.5476   -0.0000  -48.0000
  7.550  -11.5371    1.4044  -11.5963    1.5248  -11.5568    1.4887  -11.5684    1.3909  -11.4797    1.4880  -11.4969    1.5385   -0.0000  -48.0000
  7.560  -11.4908    1.3962  -11.5499    1.5160  -11.5105    1.4802  -11.5220    1.3829  -11.4339    1.4796  -11.4510    1.5296   -0.0000  -48.0000
  7.570  -11.4448    1.3881  -11.5038    1.5072  -11.4644    1.4719  -11.4760    1.3749  -11.3883    1.4712  -11.4053    1.5207   -0.0000  -48.0000
  7.580  -11.3990    1.3801  -11.4580    1.4986  -11.4186    1.4636  -11.4302    1.3670  -11.3429    1.4629  -11.3598    1.5120   -0.0000  -48.0000
  7.590  -11.3535    1.3722  -11.4124    1.4900  -11.3731    1.4554  -11.3846    1.3593  -11.2978    1.4547  -11.3146    1.5033   -0.0000  -48.0000
  7.600  -11.3083    1.3644  -11.3670    1.4816  -11.3278    1.4473  -11.3393    1.3516  -11.2530    1.4466  -11.2697    1.4948   -0.0000  -48.0000
  7.610  -11.2633    1.3567  -11.3220    1.4732  -11.2828    1.4393  -11.2943    1.3440  -11.2084    1.4385  -11.2250    1.4863   -0.0000  -48.0000
  7.620  -11.2186    1.3490  -11.2771    1.4649  -11.2380    1.4314  -11.2495    1.3364  -11.1640    1.4306  -11.1806    1.4779   -0.0000  -48.0000
  7.630  -11.1741    1.3414  -11.2326    1.4567  -11.1935    1.4236  -11.2049    1.3290  -11.1199    1.4227  -11.1364    1.4696   -0.0000  -48.0000
  7.640  -11.1298    1.3340  -11.1883    1.4486  -11.1492    1.4158  -11.1606    1.3216  -11.0761    1.4149  -11.0925    1.4614   -0.0000  -48.0000
  7.650  -11.0858    1.3266  -11.1442    1.4406  -11.1052    1.4081  -11.1166    1.3143  -11.0325    1.4072  -11.0488    1.4533   -0.0000  -48.0000
  7.660  -11.0421    1.3192  -11.1004    1.4327  -11.0614    1.4006  -11.0728    1.3071  -10.9891    1.3996  -11.0053    1.4453   -0.0000  -48.0000
  7.670  -10.9986    1.3120  -11.0568    1.4248  -11.0178    1.3930  -11.0292    1.2999  -10.9459    1.3921  -10.9621    1.4373   -0.0000  -48.0000
  7.680  -10.9553    1.3048  -11.0134    1.4170  -10.9745    1.3856  -10.9859    1.2929  -10.9030    1.3846  -10.9191    1.4295   -0.0000  -48.0000
  7.690  -10.9122    1.2977  -10.9703    1.4093  -10.9314    1.3782  -10.9428    1.2859  -10.8604    1.3772  -10.8764    1.4217   -0.0000  -48.0000
  7.700  -10.8694    1.2907  -10.9275    1.4017  -10.8885    1.3709  -10.8999    1.2790  -10.8179    1.3699  -10.8338    1.4140   -0.0000  -48.0000
  7.710  -10.8268    1.2837  -10.8848    1.3942  -10.8459    1.3637  -10.8573    1.2721  -10.7757    1.3627  -10.7915    1.4064   -0.0000  -48.0000
  7.720  -10.7845    1.2769  -10.8424    1.3867  -10.8035    1.3566  -10.8149    1.2654  -10.7337    1.3555  -10.7495    1.3988   -0.0000  -48.0000
  7.730  -10.7423    1.2701  -10.8002    1.3793  -10.7613    1.3495  -10.7727    1.2587  -10.6919    1.3484  -10.7076    1.3914   -0.0000  -48.0000
  7.740  -10.7004    1.2633  -10.7583    1.3720  -10.7194    1.3425  -10.7307    1.2520  -10.6504    1.3414  -10.6660    1.3840   -0.0000  -48.0000
  7.750  -10.6587    1.2567  -10.7166    1.3648  -10.6776    1.3356  -10.6890    1.2455  -10.6090    1.3344  -10.6245    1.3767   -0.0000  -48.0000
  7.760  -10.6172    1.2501  -10.6751    1.3576  -10.6361    1.3288  -10.6474    1.2390  -10.5679    1.3275  -10.5833    1.3694   -0.0000  -48.0000
  7.770  -10.5760    1.2435  -10.6338    1.3505  -10.5948    1.3220  -10.6061    1.2325  -10.5270    1.3207  -10.5424    1.3623   -0.0000  -48.0000
  7.780  -10.5349    1.2371  -10.5927    1.3435  -10.5537    1.3153  -10.5650    1.2262  -10.4863    1.3140  -10.5016    1.3552   -0.0000  -48.0000
  7.790  -10.4941    1.2307  -10.5519    1.3366  -10.5129    1.3086  -10.5242    1.2199  -10.4458    1.3073  -10.4610    1.3481   -0.0000  -48.0000
  7.800  -10.4535    1.2244  -10.5112    1.3297  -10.4722    1.3020  -10.4835    1.2137  -10.4055    1.3007  -10.4207    1.3412   -0.0000  -48.0000
  7.810  -10.4131    1.2181  -10.4708    1.3229  -10.4317    1.2955  -10.4430    1.2075  -10.3655    1.2941  -10.3805    1.3343   -0.0000  -48.0000
  7.820  -10.3728    1.2119  -10.4306    1.3161  -10.3915    1.2891  -10.4028    1.2014  -10.3256    1.2877  -10.3406    1.3275   -0.0000  -48.0000
  7.830  -10.3328    1.2058  -10.3905    1.3094  -10.3514    1.2827  -10.3627    1.1953  -10.2859    1.2813  -10.3008    1.3208   -0.0000  -48.0000
  7.840  -10.2930    1.1998  -10.3507    1.3028  -10.3116    1.2764  -10.3229    1.1894  -10.2464    1.2749  -10.2613    1.3141   -0.0000  -48.0000
  7.850  -10.2534    1.1938  -10.3111    1.2963  -10.2719    1.2701  -10.2832    1.1835  -10.2072    1.2686  -10.2219    1.3075   -0.0000  -48.0000
  7.860  -10.2140    1.1878  -10.2717    1.2898  -10.2324    1.2639  -10.2437    1.1776  -10.1681    1.2624  -10.1828    1.3010   -0.0000  -48.0000
  7.870  -10.1747    1.1820  -10.2325    1.2834  -10.1932    1.2578  -10.2045    1.1718  -10.1292    1.2562  -10.1438    1.2945   -0.0000  -48.0000
  7.880  -10.1357    1.1761  -10.1935    1.2770  -10.1541    1.2518  -10.1654    1.1661  -10.0905    1.2501  -10.1050    1.2881   -0.0000  -48.0000
  7.890  -10.0969    1.1704  -10.1547    1.2707  -10.1152    1.2458  -10.1265    1.1604  -10.0520    1.2441  -10.0664    1.2818   -0.0000  -48.0000
  7.900  -10.0582    1.1647  -10.1161    1.2645  -10.0765    1.2398  -10.0878    1.1548  -10.0136    1.2381  -10.0280    1.2755   -0.0000  -48.0000
  7.910  -10.0197    1.1591  -10.0776    1.2583  -10.0380    1.2339  -10.0493    1.1492   -9.9755    1.2322   -9.9898    1.2693   -0.0000  -48.0000
  7.920   -9.9814    1.1535  -10.0394    1.2522   -9.9997    1.2281  -10.0110    1.1437   -9.9375    1.2264   -9.9518    1.2631   -0.0000  -48.0000
  7.930   -9.9433    1.1480  -10.0013    1.2462   -9.9615    1.2223   -9.9729    1.1383   -9.8997    1.2206   -9.9139    1.2570   -0.0000  -48.0000
  7.940   -9.9054    1.1425   -9.9635    1.2402   -9.9236    1.2166   -9.9349    1.1329   -9.8621    1.2148   -9.8762    1.2510   -0.0000  -48.0000
  7.950   -9.8676    1.1371   -9.9258    1.2343   -9.8858    1.2110   -9.8971    1.1276   -9.8247    1.2091   -9.8387    1.2450   -0.0000  -48.0000
  7.960   -9.8301    1.1318   -9.8883    1.2284   -9.8481    1.2054   -9.8595    1.1223   -9.7875    1.2035   -9.8014    1.2391   -0.0000  -48.0000
  7.970   -9.7927    1.1265   -9.8509    1.2226   -9.8107    1.1999   -9.8221    1.1171   -9.7504    1.1979   -9.7643    1.2333   -0.0000  -48.0000
  7.980   -9.7554    1.1213   -9.8138    1.2169   -9.7734    1.1944   -9.7848    1.1119   -9.7135    1.1924   -9.7273    1.2275   -0.0000  -48.0000
  7.990   -9.7184    1.1161   -9.7768    1.2112   -9.7363    1.1890   -9.7477    1.1068   -9.6767    1.1870   -9.6905    1.2218   -0.0000  -48.0000
  8.000   -9.6815    1.1110   -9.7400    1.2055   -9.6994    1.1836   -9.7108    1.1018   -9.6401    1.1816   -9.6538    1.2161   -0.0000  -48.0000
  8.010   -9.6447    1.1059   -9.7034    1.1999   -9.6626    1.1783   -9.6741    1.0968   -9.6037    1.1762   -9.6174    1.2105   -0.0000  -48.0000
  8.020   -9.6082    1.1009   -9.6669    1.1944   -9.6260    1.1731   -9.6375    1.0918   -9.5675    1.1709   -9.5810    1.2050   -0.0000  -48.0000
  8.030   -9.5718    1.0959   -9.6306    1.1890   -9.5896    1.1679   -9.6010    1.0870   -9.5314    1.1657   -9.5449    1.1995   -0.0000  -48.0000
  8.040   -9.5355    1.0910   -9.5945    1.1835   -9.5533    1.1627   -9.5648    1.0821   -9.4954    1.1605   -9.5089    1.1940   -0.0000  -48.0000
  8.050   -9.4994    1.0862   -9.5585    1.1782   -9.5172    1.1576   -9.5287    1.0773   -9.4597    1.1554   -9.4730    1.1887   -0.0000  -48.0000
  8.060   -9.4635    1.0814   -9.5227    1.1729   -9.4812    1.1526   -9.4927    1.0726   -9.4241    1.1503   -9.4374    1.1833   -0.0000  -48.0000
  8.070   -9.4277    1.0766   -9.4870    1.1676   -9.4454    1.1476   -9.4569    1.0679   -9.3886    1.1453   -9.4018    1.1781   -0.0000  -48.0000
  8.080   -9.3921    1.0720   -9.4516    1.1624   -9.4097    1.1427   -9.4213    1.0633   -9.3533    1.1403   -9.3665    1.1729   -0.0001  -48.0000
  8.090   -9.3566    1.0673   -9.4162    1.1573   -9.3742    1.1378   -9.3858    1.0587   -9.3181    1.1354   -9.3312    1.1677   -0.0001  -48.0000
  8.100   -9.3213    1.0627   -9.3811    1.1522   -9.3388    1.1330   -9.3505    1.0542   -9.2831    1.1305   -9.2961    1.1626   -0.0001  -48.0000
  8.110   -9.2861    1.0582   -9.3460    1.1471   -9.3036    1.1283   -9.3153    1.0497   -9.2482    1.1257   -9.2612    1.1576   -0.0001  -48.0000
  8.120   -9.2511    1.0537   -9.3112    1.1421   -9.2685    1.1235   -9.2802    1.0453   -9.2135    1.1210   -9.2264    1.1526   -0.0002  -48.0000
  8.130   -9.2161    1.0493   -9.2764    1.1372   -9.2336    1.1189   -9.2453    1.0409   -9.1789    1.1163   -9.1918    1.1476   -0.0002  -48.0000
  8.140   -9.1814    1.0449   -9.2419    1.1323   -9.1988    1.1143   -9.2106    1.0366   -9.1444    1.1116   -9.1573    1.1428   -0.0003  -48.0000
  8.150   -9.1468    1.0406   -9.2074    1.1275   -9.1641    1.1097   -9.1759    1.0323   -9.1101    1.1070   -9.1229    1.1379   -0.0003  -48.0000
  8.160   -9.1123    1.0363   -9.1731    1.1227   -9.1296    1.1052   -9.1414    1.0281   -9.0759    1.1024   -9.0886    1.1331   -0.0004  -48.0000
  8.170   -9.0779    1.0321   -9.1390    1.1179   -9.0952    1.1008   -9.1071    1.0239   -9.0419    1.0979   -9.0545    1.1284   -0.0005  -48.0000
  8.180   -9.0437    1.0279   -9.1050    1.1132   -9.0609    1.0964   -9.0729    1.0198   -9.0080    1.0935   -9.0206    1.1238   -0.0007  -48.0000
  8.190   -9.0096    1.0238   -9.0711    1.1086   -9.0268    1.0920   -9.0388    1.0157   -8.9742    1.0891   -8.9867    1.1191   -0.0009  -48.0000
  8.200   -8.9756    1.0197   -9.0374    1.1040   -8.9928    1.0877   -9.0048    1.0117   -8.9405    1.0847   -8.9530    1.1146   -0.0011  -48.0000
  8.210   -8.9418    1.0157   -9.0038    1.0995   -8.9589    1.0835   -8.9710    1.0077   -8.9070    1.0804   -8.9194    1.1101   -0.0014  -48.0000
  8.220   -8.9081    1.0117   -8.9704    1.0950   -8.9251    1.0793   -8.9373    1.0038   -8.8736    1.0762   -8.8860    1.1056   -0.0017  -48.0000
  8.230   -8.8744    1.0078   -8.9370    1.0905   -8.8915    1.0752   -8.9037    0.9999   -8.8403    1.0720   -8.8526    1.1012   -0.0021  -48.0000
  8.240   -8.8410    1.0040   -8.9038    1.0861   -8.8579    1.0711   -8.8702    0.9961   -8.8071    1.0678   -8.8194    1.0969   -0.0026  -48.0000
  8.250   -8.8076    1.0002   -8.8708    1.0818   -8.8245    1.0671   -8.8369    0.9923   -8.7741    1.0637   -8.7863    1.0926   -0.0033  -48.0000
  8.260   -8.7743    0.9964   -8.8378    1.0775   -8.7912    1.0631   -8.8037    0.9886   -8.7411    1.0597   -8.7533    1.0883   -0.0041  -48.0000
  8.270   -8.7412    0.9927   -8.8050    1.0733   -8.7581    1.0592   -8.7706    0.9850   -8.7083    1.0557   -8.7204    1.0841   -0.0051  -48.0000
  8.280   -8.7082    0.9890   -8.7723    1.0691   -8.7250    1.0553   -8.7376    0.9813   -8.6756    1.0518   -8.6877    1.0800   -0.0063  -48.0000
  8.290   -8.6752    0.9854   -8.7397    1.0649   -8.6920    1.0515   -8.7047    0.9778   -8.6430    1.0479   -8.6550    1.0759   -0.0078  -48.0000
  8.300   -8.6424    0.9819   -8.7072    1.0608   -8.6592    1.0477   -8.6719    0.9743   -8.6105    1.0440   -8.6225    1.0719   -0.0096  -48.0000
  8.310   -8.6097    0.9784   -8.6749    1.0568   -8.6264    1.0440   -8.6392    0.9708   -8.5781    1.0402   -8.5900    1.0679   -0.0118  -48.0000
  8.320   -8.5771    0.9750   -8.6427    1.0528   -8.5938    1.0404   -8.6067    0.9674   -8.5458    1.0365   -8.5577    1.0640   -0.0145  -48.0000
  8.330   -8.5446    0.9716   -8.6105    1.0488   -8.5612    1.0368   -8.5742    0.9641   -8.5136    1.0328   -8.5254    1.0601   -0.0177  -48.0000
  8.340   -8.5122    0.9683   -8.5785    1.0449   -8.5287    1.0332   -8.5418    0.9608   -8.4815    1.0292   -8.4933    1.0563   -0.0217  -48.0000
  8.350   -8.4798    0.9650   -8.5466    1.0411   -8.4964    1.0297   -8.5096    0.9575   -8.4495    1.0256   -8.4612    1.0526   -0.0265  -48.0001
  8.360   -8.4476    0.9618   -8.5148    1.0373   -8.4641    1.0263   -8.4774    0.9543   -8.4176    1.0221   -8.4293    1.0489   -0.0323  -48.0001
  8.370   -8.4154    0.9586   -8.4831    1.0335   -8.4319    1.0229   -8.4453    0.9512   -8.3858    1.0186   -8.3974    1.0452   -0.0393  -48.0001
  8.380   -8.3834    0.9555   -8.4515    1.0298   -8.3998    1.0196   -8.4133    0.9481   -8.3541    1.0152   -8.3657    1.0417   -0.0477  -48.0001
  8.390   -8.3514    0.9525   -8.4200    1.0262   -8.3678    1.0164   -8.3814    0.9451   -8.3225    1.0119   -8.3340    1.0381   -0.0578  -48.0001
  8.400   -8.3195    0.9495   -8.3886    1.0226   -8.3359    1.0132   -8.3496    0.9421   -8.2909    1.0086   -8.3024    1.0347   -0.0699  -48.0001
  8.410   -8.2877    0.9465   -8.3573    1.0191   -8.3040    1.0101   -8.3178    0.9392   -8.2594    1.0053   -8.2708    1.0313   -0.0844  -48.0002
  8.420   -8.2559    0.9437   -8.3261    1.0156   -8.2722    1.0070   -8.2862    0.9364   -8.2280    1.0022   -8.2394    1.0279   -0.1017  -48.0002
  8.430   -8.2243    0.9409   -8.2950    1.0121   -8.2405    1.0040   -8.2546    0.9336   -8.1967    0.9990   -8.2080    1.0246   -0.1223  -48.0003
  8.440   -8.1927    0.9381   -8.2640    1.0087   -8.2089    1.0010   -8.2231    0.9309   -8.1654    0.9960   -8.1767    1.0214   -0.1467  -48.0003
  8.450   -8.1611    0.9355   -8.2330    1.0054   -8.1773    0.9982   -8.1917    0.9282   -8.1343    0.9930   -8.1455    1.0182   -0.1758  -48.0004
  8.460   -8.1296    0.9329   -8.2022    1.0021   -8.1458    0.9954   -8.1603    0.9256   -8.1031    0.9900   -8.1143    1.0151   -0.2101  -48.0005
  8.470   -8.0982    0.9303   -8.1714    0.9989   -8.1143    0.9926   -8.1290    0.9231   -8.0721    0.9872   -8.0832    1.0121   -0.2507  -48.0005
  8.480   -8.0669    0.9278   -8.1407    0.9957   -8.0829    0.9900   -8.0977    0.9206   -8.0411    0.9843   -8.0522    1.0091   -0.2986  -48.0007
  8.490   -8.0356    0.9254   -8.1101    0.9926   -8.0516    0.9874   -8.0666    0.9182   -8.0102    0.9816   -8.0212    1.0062   -0.3548  -48.0008
  8.500   -8.0043    0.9231   -8.0796    0.9895   -8.0203    0.9848   -8.0354    0.9159   -7.9793    0.9789   -7.9903    1.0034   -0.4209  -48.0009
  8.510   -7.9731    0.9208   -8.0491    0.9865   -7.9890    0.9824   -8.0044    0.9136   -7.9485    0.9763   -7.9595    1.0006   -0.4984  -48.0011
  8.520   -7.9419    0.9187   -8.0187    0.9836   -7.9578    0.9800   -7.9733    0.9114   -7.9177    0.9738   -7.9286    0.9979   -0.5889  -48.0013
  8.530   -7.9108    0.9165   -7.9883    0.9807   -7.9266    0.9777   -7.9424    0.9093   -7.8870    0.9713   -7.8979    0.9953   -0.6946  -48.0016
  8.540   -7.8797    0.9145   -7.9581    0.9779   -7.8955    0.9755   -7.9114    0.9073   -7.8563    0.9689   -7.8671    0.9928   -0.8176  -48.0019
  8.550   -7.8486    0.9126   -7.9279    0.9751   -7.8644    0.9734   -7.8805    0.9053   -7.8256    0.9666   -7.8364    0.9903   -0.9605  -48.0022
  8.560   -7.8176    0.9107   -7.8977    0.9724   -7.8334    0.9713   -7.8497    0.9034   -7.7950    0.9643   -7.8058    0.9879   -1.1262  -48.0027
  8.570   -7.7866    0.9089   -7.8676    0.9698   -7.8023    0.9694   -7.8189    0.9016   -7.7644    0.9622   -7.7752    0.9856   -1.3181  -48.0031
  8.580   -7.7556    0.9073   -7.8376    0.9672   -7.7713    0.9675   -7.7881    0.8999   -7.7338    0.9601   -7.7446    0.9834   -1.5396  -48.0037
  8.590   -7.7247    0.9057   -7.8076    0.9647   -7.7403    0.9657   -7.7573    0.8983   -7.7033    0.9581   -7.7140    0.9813   -1.7949  -48.0044
  8.600   -7.6937    0.9042   -7.7776    0.9623   -7.7093    0.9640   -7.7266    0.8968   -7.6728    0.9562   -7.6834    0.9792   -2.0887  -48.0051
  8.610   -7.6627    0.9028   -7.7477    0.9599   -7.6783    0.9625   -7.6958    0.8953   -7.6423    0.9544   -7.6529    0.9773   -2.4259  -48.0060
  8.620   -7.6318    0.9015   -7.7179    0.9576   -7.6473    0.9610   -7.6651    0.8940   -7.6118    0.9527   -7.6224    0.9754   -2.8123  -48.0071
  8.630   -7.6008    0.9003   -7.6881    0.9554   -7.6163    0.9596   -7.6344    0.8928   -7.5813    0.9510   -7.5918    0.9737   -3.2542  -48.0083
  8.640   -7.5699    0.8992   -7.6583    0.9532   -7.5853    0.9584   -7.6037    0.8916   -7.5508    0.9495   -7.5613    0.9720   -3.7586  -48.0096
  8.650   -7.5389    0.8982   -7.6285    0.9511   -7.5543    0.9572   -7.5730    0.8906   -7.5203    0.9481   -7.5308    0.9704   -4.3335  -48.0112
  8.660   -7.5079    0.8974   -7.5988    0.9492   -7.5233    0.9562   -7.5423    0.8897   -7.4898    0.9468   -7.5002    0.9690   -4.9874  -48.0131
  8.670   -7.4769    0.8967   -7.5691    0.9472   -7.4922    0.9553   -7.5116    0.8889   -7.4593    0.9456   -7.4697    0.9677   -5.7299  -48.0152
  8.680   -7.4459    0.8961   -7.5394    0.9454   -7.4611    0.9546   -7.4808    0.8883   -7.4287    0.9445   -7.4391    0.9664   -6.5717  -48.0176
  8.690   -7.4148    0.8957   -7.5097    0.9437   -7.4300    0.9540   -7.4500    0.8877   -7.3982    0.9435   -7.4085    0.9654   -7.5246  -48.0204
  8.700   -7.3837    0.8954   -7.4800    0.9420   -7.3989    0.9535   -7.4193    0.8873   -7.3676    0.9427   -7.3779    0.9644   -8.6015  -48.0235
  8.710   -7.3525    0.8952   -7.4504    0.9405   -7.3677    0.9532   -7.3884    0.8871   -7.3370    0.9420   -7.3473    0.9636   -9.8168  -48.0271
  8.720   -7.3213    0.8952   -7.4207    0.9390   -7.3364    0.9530   -7.3576    0.8870   -7.3063    0.9414   -7.3166    0.9629  -11.1865  -48.0312
  8.730   -7.2900    0.8954   -7.3911    0.9377   -7.3051    0.9530   -7.3267    0.8870   -7.2756    0.9410   -7.2858    0.9623  -12.7280  -48.0359
  8.740   -7.2586    0.8957   -7.3614    0.9364   -7.2737    0.9532   -7.2957    0.8872   -7.2448    0.9407   -7.2550    0.9620  -14.4608  -48.0412
  8.750   -7.2272    0.8962   -7.3317    0.9352   -7.2422    0.9536   -7.2647    0.8876   -7.2139    0.9406   -7.2241    0.9617  -16.4061  -48.0473
  8.760   -7.1956    0.8970   -7.3020    0.9342   -7.2106    0.9542   -7.2336    0.8881   -7.1830    0.9407   -7.1932    0.9617  -18.5875  -48.0541
  8.770   -7.1640    0.8979   -7.2723    0.9333   -7.1790    0.9549   -7.2025    0.8889   -7.1520    0.9409   -7.1622    0.9618  -21.0307  -48.0618
  8.780   -7.1323    0.8990   -7.2426    0.9325   -7.1473    0.9559   -7.1712    0.8898   -7.1210    0.9413   -7.1311    0.9621  -23.7640  -48.0705
  8.790   -7.1005    0.9004   -7.2128    0.9318   -7.1154    0.9571   -7.1399    0.8910   -7.0898    0.9420   -7.0999    0.9626  -26.8181  -48.0804
  8.800   -7.0686    0.9020   -7.1830    0.9313   -7.0834    0.9586   -7.1085    0.8924   -7.0585    0.9428   -7.0686    0.9634  -30.2267  -48.0915
  8.810   -7.0365    0.9038   -7.1531    0.9309   -7.0513    0.9603   -7.0770    0.8940   -7.0271    0.9439   -7.0372    0.9643  -34.0260  -48.1040
  8.820   -7.0043    0.9060   -7.1232    0.9306   -7.0191    0.9623   -7.0454    0.8959   -6.9956    0.9452   -7.0057    0.9655  -38.2551  -48.1181
  8.830   -6.9719    0.9084   -7.0933    0.9305   -6.9867    0.9646   -7.0136    0.8980   -6.9640    0.9467   -6.9740    0.9669  -42.9558  -48.1339
  8.840   -6.9394    0.9111   -7.0632    0.9306   -6.9542    0.9672   -6.9818    0.9004   -6.9322    0.9485   -6.9422    0.9686  -48.1722  -48.1516
  8.850   -6.9067    0.9142   -7.0331    0.9308   -6.9215    0.9701   -6.9498    0.9031   -6.9003    0.9506   -6.9103    0.9706  -53.9510  -48.1714
  8.860   -6.8739    0.9176   -7.0030    0.9312   -6.8886    0.9734   -6.9176    0.9062   -6.8683    0.9530   -6.8782    0.9729  -60.3406  -48.1936
  8.870   -6.8408    0.9213   -6.9727    0.9318   -6.8556    0.9771   -6.8853    0.9095   -6.8360    0.9557   -6.8460    0.9755  -67.3906  -48.2183
  8.880   -6.8076    0.9255   -6.9423    0.9326   -6.8223    0.9811   -6.8529    0.9133   -6.8036    0.9587   -6.8136    0.9784  -75.1516  -48.2459
  8.890   -6.7741    0.9301   -6.9119    0.9336   -6.7889    0.9856   -6.8203    0.9174   -6.7710    0.9621   -6.7809    0.9817  -83.6736  -48.2767
  8.900   -6.7405    0.9351   -6.8813    0.9348   -6.7552    0.9906   -6.7875    0.9219   -6.7382    0.9659   -6.7481    0.9854  -93.0056  -48.3109
  8.910   -6.7066    0.9407   -6.8507    0.9363   -6.7213    0.9960   -6.7545    0.9269   -6.7052    0.9701   -6.7151    0.9895 -103.1944  -48.3488
  8.920   -6.6724    0.9467   -6.8199    0.9379   -6.6871    1.0020   -6.7213    0.9324   -6.6720    0.9748   -6.6819    0.9940 -114.2830  -48.3908
  8.930   -6.6380    0.9534   -6.7889    0.9399   -6.6528    1.0085   -6.6879    0.9383   -6.6385    0.9799   -6.6484    0.9991 -126.3099  -48.4372
  8.940   -6.6034    0.9606   -6.7579    0.9421   -6.6181    1.0157   -6.6543    0.9449   -6.6048    0.9856   -6.6147    1.0046 -139.3070  -48.4884
  8.950   -6.5684    0.9685   -6.7266    0.9446   -6.5832    1.0235   -6.6205    0.9520   -6.5708    0.9918   -6.5807    1.0107 -153.2991  -48.5447
  8.960   -6.5332    0.9771   -6.6952    0.9475   -6.5480    1.0321   -6.5864    0.9597   -6.5366    0.9986   -6.5465    1.0175 -168.3021  -48.6066
  8.970   -6.4977    0.9865   -6.6637    0.9506   -6.5125    1.0414   -6.5521    0.9681   -6.5021    1.0061   -6.5119    1.0248 -184.3222  -48.6743
  8.980   -6.4619    0.9967   -6.6319    0.9542   -6.4768    1.0516   -6.5176    0.9773   -6.4673    1.0142   -6.4772    1.0329 -201.3554  -48.7483
  8.990   -6.4258    1.0078   -6.6000    0.9581   -6.4408    1.0627   -6.4828    0.9873   -6.4322    1.0231   -6.4421    1.0417 -219.3865  -48.8289
  9.000   -6.3893    1.0199   -6.5679    0.9624   -6.4044    1.0747   -6.4479    0.9981   -6.3968    1.0329   -6.4067    1.0513 -238.3896  -48.9166
  9.010   -6.3526    1.0331   -6.5355    0.9671   -6.3678    1.0879   -6.4126    1.0099   -6.3611    1.0435   -6.3710    1.0619 -258.3284  -49.0115
  9.020   -6.3156    1.0474   -6.5029    0.9723   -6.3310    1.1022   -6.3772    1.0227   -6.3252    1.0551   -6.3351    1.0734 -279.1574  -49.1141
  9.030   -6.2783    1.0630   -6.4701    0.9780   -6.2938    1.1177   -6.3416    1.0366   -6.2889    1.0678   -6.2988    1.0859 -300.8228  -49.2246
  9.040   -6.2408    1.0800   -6.4371    0.9842   -6.2565    1.1347   -6.3057    1.0517   -6.2523    1.0816   -6.2623    1.0997 -323.2652  -49.3434
  9.050   -6.2030    1.0984   -6.4038    0.9911   -6.2189    1.1531   -6.2697    1.0681   -6.2155    1.0966   -6.2255    1.1146 -346.4217  -49.4707
  9.060   -6.1650    1.1185   -6.3702    0.9985   -6.1812    1.1732   -6.2336    1.0858   -6.1784    1.1130   -6.1884    1.1309 -370.2285  -49.6068
  9.070   -6.1269    1.1403   -6.3363    1.0066   -6.1433    1.1951   -6.1974    1.1052   -6.1411    1.1309   -6.1511    1.1487 -394.6241  -49.7518
  9.080   -6.0886    1.1641   -6.3022    1.0154   -6.1054    1.2189   -6.1612    1.1262   -6.1036    1.1504   -6.1137    1.1682 -419.5517  -49.9060
  9.090   -6.0504    1.1901   -6.2678    1.0250   -6.0676    1.2448   -6.1250    1.1490   -6.0660    1.1717   -6.0761    1.1893 -444.9625  -50.0695
  9.100   -6.0123    1.2183   -6.2331    1.0355   -6.0299    1.2730   -6.0890    1.1737   -6.0284    1.1949   -6.0385    1.2125 -470.8168  -50.2425
  9.110   -5.9744    1.2491   -6.1981    1.0469   -5.9926    1.3037   -6.0532    1.2006   -5.9907    1.2203   -6.0009    1.2377 -497.0865  -50.4252
  9.120   -5.9369    1.2825   -6.1628    1.0592   -5.9557    1.3371   -6.0179    1.2298   -5.9533    1.2479   -5.9635    1.2652 -523.7545  -50.6177
  9.130   -5.9000    1.3190   -6.1272    1.0727   -5.9195    1.3735   -5.9831    1.2614   -5.9161    1.2780   -5.9264    1.2952 -550.8146  -50.8201
  9.140   -5.8640    1.3587   -6.0913    1.0873   -5.8843    1.4130   -5.9492    1.2957   -5.8795    1.3108   -5.8898    1.3279 -578.2689  -51.0326
  9.150   -5.8292    1.4018   -6.0552    1.1032   -5.8503    1.4559   -5.9163    1.3329   -5.8435    1.3465   -5.8539    1.3636 -606.1250  -51.2554
  9.160   -5.7959    1.4487   -6.0188    1.1205   -5.8181    1.5024   -5.8848    1.3731   -5.8086    1.3854   -5.8191    1.4023 -634.3907  -51.4885
  9.170   -5.7647    1.4995   -5.9822    1.1393   -5.7879    1.5527   -5.8551    1.4164   -5.7750    1.4277   -5.7855    1.4445 -663.0684  -51.7322
  9.180   -5.7361    1.5545   -5.9454    1.1598   -5.7605    1.6070   -5.8276    1.4631   -5.7431    1.4735   -5.7538    1.4902 -692.1484  -51.9865
  9.190   -5.7106    1.6138   -5.9085    1.1820   -5.7364    1.6655   -5.8028    1.5132   -5.7135    1.5231   -5.7243    1.5396 -721.6013  -52.2517
  9.200   -5.6892    1.6776   -5.8715    1.2062   -5.7163    1.7281   -5.7813    1.5668   -5.6868    1.5766   -5.6976    1.5930 -751.3704  -52.5278
  9.210   -5.6727    1.7457   -5.8345    1.2325   -5.7012    1.7948   -5.7638    1.6237   -5.6635    1.6341   -5.6745    1.6503 -781.3650  -52.8150
  9.220   -5.6620    1.8182   -5.7977    1.2612   -5.6919    1.8654   -5.7511    1.6839   -5.6445    1.6955   -5.6556    1.7115 -811.4536  -53.1132
  9.230   -5.6583    1.8946   -5.7611    1.2924   -5.6895    1.9395   -5.7438    1.7470   -5.6306    1.7606   -5.6418    1.7765 -841.4598  -53.4224
  9.240   -5.6627    1.9744   -5.7250    1.3263   -5.6951    2.0166   -5.7429    1.8126   -5.6228    1.8293   -5.6341    1.8449 -871.1590  -53.7426
  9.250   -5.6764    2.0567   -5.6895    1.3632   -5.7097    2.0956   -5.7492    1.8799   -5.6219    1.9008   -5.6334    1.9162 -900.2782  -54.0734
  9.260   -5.7006    2.1403   -5.6549    1.4034   -5.7342    2.1754   -5.7633    1.9480   -5.6291    1.9744   -5.6407    1.9896 -928.4983  -54.4146
  9.270   -5.7363    2.2236   -5.6216    1.4470   -5.7696    2.2545   -5.7860    2.0156   -5.6450    2.0491   -5.6568    2.0641 -955.4590  -54.7658
  9.280   -5.7842    2.3047   -5.5898    1.4943   -5.8164    2.3310   -5.8176    2.0815   -5.6706    2.1235   -5.6824    2.1381 -980.7669  -55.1262
  9.290   -5.8446    2.3812   -5.5602    1.5456   -5.8747    2.4027   -5.8582    2.1440   -5.7061    2.1959   -5.7181    2.2102 *********  -55.4951
  9.300   -5.9174    2.4507   -5.5331    1.6010   -5.9441    2.4675   -5.9075    2.2014   -5.7517    2.2645   -5.7638    2.2785 *********  -55.8717
  9.310   -6.0017    2.5104   -5.5093    1.6608   -6.0237    2.5231   -5.9648    2.2521   -5.8069    2.3274   -5.8191    2.3410 *********  -56.2549
  9.320   -6.0957    2.5579   -5.4895    1.7251   -6.1120    2.5673   -6.0287    2.2945   -5.8709    2.3828   -5.8832    2.3960 *********  -56.6433
  9.330   -6.1973    2.5912   -5.4746    1.7937   -6.2068    2.5984   -6.0979    2.3275   -5.9423    2.4290   -5.9546    2.4417 *********  -57.0358
  9.340   -6.3035    2.6088   -5.4656    1.8667   -6.3056    2.6154   -6.1705    2.3504   -6.0192    2.4648   -6.0315    2.4770 *********  -57.4307
  9.350   -6.4112    2.6099   -5.4637    1.9437   -6.4057    2.6176   -6.2444    2.3629   -6.0997    2.4895   -6.1119    2.5013 *********  -57.8266
  9.360   -6.5171    2.5949   -5.4698    2.0242   -6.5042    2.6055   -6.3179    2.3654   -6.1816    2.5031   -6.1937    2.5143 *********  -58.2217
  9.370   -6.6181    2.5648   -5.4854    2.1072   -6.5988    2.5799   -6.3892    2.3586   -6.2629    2.5059   -6.2749    2.5166 *********  -58.6144
  9.380   -6.7118    2.5213   -5.5116    2.1917   -6.6871    2.5424   -6.4573    2.3437   -6.3422    2.4988   -6.3539    2.5091 *********  -59.0031
  9.390   -6.7963    2.4667   -5.5493    2.2761   -6.7678    2.4946   -6.5212    2.3218   -6.4182    2.4830   -6.4296    2.4927 *********  -59.3860
  9.400   -6.8703    2.4033   -5.5996    2.3585   -6.8398    2.4387   -6.5805    2.2942   -6.4901    2.4596   -6.5011    2.4689 *********  -59.7615
  9.410   -6.9336    2.3336   -5.6627    2.4364   -6.9027    2.3764   -6.6353    2.2620   -6.5576    2.4298   -6.5682    2.4386 -997.6903  -60.1281
  9.420   -6.9861    2.2598   -5.7387    2.5075   -6.9563    2.3097   -6.6858    2.2261   -6.6206    2.3944   -6.6308    2.4029 -969.6903  -60.4845
  9.430   -7.0283    2.1837   -5.8267    2.5689   -7.0011    2.2399   -6.7321    2.1869   -6.6792    2.3541   -6.6889    2.3623 -938.2378  -60.8293
  9.440   -7.0610    2.1069   -5.9253    2.6180   -7.0374    2.1684   -6.7747    2.1448   -6.7334    2.3094   -6.7426    2.3174 -903.7620  -61.1614
  9.450   -7.0851    2.0303   -6.0323    2.6526   -7.0659    2.0961   -6.8137    2.1000   -6.7832    2.2605   -6.7919    2.2683 -866.7323  -61.4799
  9.460   -7.1015    1.9549   -6.1450    2.6708   -7.0870    2.0237   -6.8491    2.0523   -6.8284    2.2077   -6.8365    2.2154 -827.6443  -61.7841
  9.470   -7.1110    1.8813   -6.2599    2.6716   -7.1014    1.9520   -6.8806    2.0020   -6.8686    2.1512   -6.8763    2.1589 -787.0063  -62.0733
  9.480   -7.1144    1.8097   -6.3736    2.6550   -7.1096    1.8813   -6.9081    1.9491   -6.9036    2.0914   -6.9107    2.0991 -745.3255  -62.3472
  9.490   -7.1124    1.7406   -6.4828    2.6217   -7.1120    1.8122   -6.9311    1.8939   -6.9328    2.0288   -6.9395    2.0366 -703.0960  -62.6056
  9.500   -7.1055    1.6740   -6.5846    2.5733   -7.1092    1.7450   -6.9494    1.8369   -6.9560    1.9640   -6.9623    1.9720 -660.7877  -62.8484
  9.510   -7.0944    1.6103   -6.6766    2.5119   -7.1015    1.6800   -6.9627    1.7786   -6.9730    1.8980   -6.9788    1.9061 -618.8367  -63.0758
  9.520   -7.0794    1.5494   -6.7570    2.4402   -7.0895    1.6175   -6.9708    1.7197   -6.9837    1.8315   -6.9892    1.8397 -577.6380  -63.2881
  9.530   -7.0611    1.4914   -6.8251    2.3607   -7.0736    1.5577   -6.9738    1.6607   -6.9883    1.7653   -6.9936    1.7737 -537.5400  -63.4857
  9.540   -7.0399    1.4365   -6.8805    2.2762   -7.0542    1.5008   -6.9719    1.6025   -6.9872    1.7002   -6.9922    1.7088 -498.8405  -63.6690
  9.550   -7.0163    1.3846   -6.9236    2.1889   -7.0320    1.4470   -6.9655    1.5455   -6.9807    1.6368   -6.9856    1.6457 -461.7850  -63.8387
  9.560   -6.9905    1.3358   -6.9549    2.1010   -7.0073    1.3962   -6.9548    1.4902   -6.9695    1.5757   -6.9742    1.5848 -426.5667  -63.9954
  9.570   -6.9630    1.2898   -6.9757    2.0139   -6.9806    1.3485   -6.9404    1.4371   -6.9541    1.5172   -6.9587    1.5265 -393.3277  -64.1400
  9.580   -6.9342    1.2467   -6.9869    1.9291   -6.9522    1.3037   -6.9227    1.3863   -6.9351    1.4616   -6.9396    1.4711 -362.1617  -64.2731
  9.590   -6.9042    1.2064   -6.9898    1.8474   -6.9225    1.2618   -6.9022    1.3380   -6.9131    1.4091   -6.9175    1.4188 -333.1174  -64.3955
  9.600   -6.8734    1.1687   -6.9855    1.7694   -6.8918    1.2227   -6.8794    1.2924   -6.8885    1.3597   -6.8928    1.3695 -306.2035  -64.5080
  9.610   -6.8420    1.1335   -6.9752    1.6956   -6.8604    1.1862   -6.8546    1.2493   -6.8619    1.3134   -6.8662    1.3233 -281.3932  -64.6114
  9.620   -6.8103    1.1006   -6.9598    1.6261   -6.8286    1.1522   -6.8282    1.2089   -6.8337    1.2700   -6.8380    1.2801 -258.6296  -64.7065
  9.630   -6.7782    1.0699   -6.9403    1.5609   -6.7964    1.1205   -6.8006    1.1710   -6.8043    1.2296   -6.8085    1.2397 -237.8312  -64.7939
  9.640   -6.7461    1.0412   -6.9174    1.5000   -6.7640    1.0909   -6.7721    1.1355   -6.7739    1.1918   -6.7781    1.2021 -218.8973  -64.8743
  9.650   -6.7140    1.0144   -6.8919    1.4433   -6.7317    1.0633   -6.7429    1.1023   -6.7429    1.1566   -6.7471    1.1670 -201.7131  -64.9484
  9.660   -6.6820    0.9893   -6.8642    1.3905   -6.6994    1.0375   -6.7131    1.0713   -6.7114    1.1239   -6.7157    1.1343 -186.1539  -65.0169
  9.670   -6.6502    0.9659   -6.8349    1.3415   -6.6673    1.0135   -6.6831    1.0422   -6.6797    1.0934   -6.6840    1.1039 -172.0903  -65.0801
  9.680   -6.6186    0.9440   -6.8044    1.2959   -6.6355    0.9910   -6.6528    1.0151   -6.6479    1.0649   -6.6522    1.0755 -159.3910  -65.1387
  9.690   -6.5873    0.9234   -6.7729    1.2536   -6.6039    0.9699   -6.6225    0.9897   -6.6161    1.0384   -6.6204    1.0490 -147.9266  -65.1930
  9.700   -6.5563    0.9041   -6.7409    1.2144   -6.5727    0.9502   -6.5922    0.9659   -6.5844    1.0137   -6.5887    1.0243 -137.5718  -65.2436
  9.710   -6.5257    0.8860   -6.7084    1.1779   -6.5418    0.9317   -6.5621    0.9437   -6.5530    0.9905   -6.5573    1.0012 -128.2078  -65.2907
  9.720   -6.4955    0.8690   -6.6758    1.1440   -6.5114    0.9143   -6.5321    0.9228   -6.5217    0.9689   -6.5260    0.9796 -119.7232  -65.3347
  9.730   -6.4656    0.8530   -6.6431    1.1124   -6.4813    0.8979   -6.5023    0.9033   -6.4908    0.9487   -6.4951    0.9594 -112.0157  -65.3759
  9.740   -6.4362    0.8379   -6.6105    1.0831   -6.4516    0.8825   -6.4728    0.8849   -6.4602    0.9297   -6.4645    0.9405 -104.9921  -65.4145
  9.750   -6.4071    0.8236   -6.5780    1.0557   -6.4223    0.8680   -6.4436    0.8676   -6.4300    0.9119   -6.4343    0.9227  -98.5686  -65.4507
  9.760   -6.3784    0.8102   -6.5457    1.0302   -6.3935    0.8542   -6.4147    0.8513   -6.4002    0.8952   -6.4045    0.9060  -92.6709  -65.4847
  9.770   -6.3502    0.7974   -6.5137    1.0063   -6.3650    0.8412   -6.3861    0.8360   -6.3707    0.8794   -6.3751    0.8902  -87.2335  -65.5168
  9.780   -6.3223    0.7853   -6.4821    0.9840   -6.3370    0.8289   -6.3579    0.8215   -6.3417    0.8646   -6.3460    0.8754  -82.1996  -65.5470
  9.790   -6.2948    0.7739   -6.4508    0.9631   -6.3093    0.8173   -6.3300    0.8078   -6.3130    0.8506   -6.3174    0.8614  -77.5199  -65.5755
  9.800   -6.2677    0.7630   -6.4199    0.9434   -6.2821    0.8062   -6.3025    0.7949   -6.2848    0.8374   -6.2891    0.8482  -73.1524  -65.6024
  9.810   -6.2410    0.7527   -6.3894    0.9250   -6.2552    0.7957   -6.2753    0.7826   -6.2569    0.8249   -6.2613    0.8357  -69.0610  -65.6278
  9.820   -6.2147    0.7429   -6.3594    0.9077   -6.2287    0.7857   -6.2485    0.7710   -6.2295    0.8130   -6.2339    0.8238  -65.2156  -65.6517
  9.830   -6.1887    0.7335   -6.3297    0.8914   -6.2026    0.7761   -6.2220    0.7600   -6.2024    0.8018   -6.2068    0.8126  -61.5905  -65.6744
  9.840   -6.1630    0.7245   -6.3005    0.8761   -6.1768    0.7670   -6.1958    0.7495   -6.1757    0.7911   -6.1801    0.8019  -58.1642  -65.6957
  9.850   -6.1377    0.7160   -6.2717    0.8616   -6.1514    0.7583   -6.1700    0.7395   -6.1494    0.7810   -6.1539    0.7917  -54.9187  -65.7159
  9.860   -6.1128    0.7078   -6.2434    0.8478   -6.1264    0.7500   -6.1446    0.7300   -6.1235    0.7713   -6.1279    0.7820  -51.8390  -65.7350
  9.870   -6.0881    0.7000   -6.2154    0.8349   -6.1016    0.7421   -6.1194    0.7210   -6.0979    0.7621   -6.1024    0.7728  -48.9124  -65.7529
  9.880   -6.0638    0.6925   -6.1879    0.8226   -6.0772    0.7344   -6.0946    0.7123   -6.0727    0.7533   -6.0772    0.7640  -46.1282  -65.7699
  9.890   -6.0398    0.6854   -6.1608    0.8109   -6.0531    0.7271   -6.0701    0.7040   -6.0479    0.7449   -6.0523    0.7556  -43.4774  -65.7859
  9.900   -6.0161    0.6785   -6.1340    0.7998   -6.0293    0.7201   -6.0459    0.6961   -6.0233    0.7369   -6.0277    0.7475  -40.9522  -65.8009
  9.910   -5.9926    0.6718   -6.1077    0.7893   -6.0058    0.7133   -6.0220    0.6885   -5.9991    0.7292   -6.0035    0.7398  -38.5460  -65.8151
  9.920   -5.9695    0.6655   -6.0817    0.7792   -5.9825    0.7068   -5.9984    0.6813   -5.9752    0.7219   -5.9796    0.7324  -36.2532  -65.8284
  9.930   -5.9466    0.6593   -6.0561    0.7697   -5.9596    0.7006   -5.9751    0.6743   -5.9516    0.7148   -5.9560    0.7253  -34.0685  -65.8409
  9.940   -5.9240    0.6534   -6.0308    0.7606   -5.9369    0.6945   -5.9520    0.6676   -5.9283    0.7080   -5.9327    0.7185  -31.9875  -65.8527
  9.950   -5.9017    0.6477   -6.0059    0.7518   -5.9145    0.6887   -5.9293    0.6611   -5.9053    0.7015   -5.9097    0.7119  -30.0061  -65.8637
  9.960   -5.8796    0.6422   -5.9814    0.7435   -5.8923    0.6831   -5.9067    0.6549   -5.8825    0.6952   -5.8869    0.7056  -28.1206  -65.8740
  9.970   -5.8577    0.6369   -5.9571    0.7355   -5.8704    0.6777   -5.8845    0.6490   -5.8600    0.6891   -5.8645    0.6995  -26.3276  -65.8837
  9.980   -5.8361    0.6318   -5.9332    0.7278   -5.8487    0.6724   -5.8625    0.6432   -5.8378    0.6833   -5.8423    0.6937  -24.6237  -65.8924
  9.990   -5.8147    0.6268   -5.9096    0.7205   -5.8273    0.6673   -5.8407    0.6376   -5.8159    0.6776   -5.8203    0.6880  -23.0061  -65.9022
 10.000   -5.7936    0.6220   -5.8863    0.7134   -5.8061    0.6624   -5.8191    0.6323   -5.7942    0.6722   -5.7986    0.6825  -21.4717  -65.9052
