# Macroscopic dielectric function obtained with the BS equation.
#  RPA L0 with KS energies and KS wavefunctions     LOCAL FIELD EFFECTS INCLUDED
# RESONANT-ONLY calculation
# Coulomb term constructed with full W(G1,G2)
# Scissor operator energy =  0.8000 [eV]
# nstates included in the diagonalization = 96
# npweps  = 113
# npwwfn  = 259
# nbands  = 8
# loband  = 2
# nkibz   = 3
# nkbz    = 8
# Lorentzian broadening =  0.0000 [eV]
# List of q-points for the optical limit:
# q =  0.938821, 0.000000, 0.000000, [Reduced coords] 
# q =  0.000000, 0.938821, 0.000000, [Reduced coords] 
# q =  0.000000, 0.000000, 0.938821, [Reduced coords] 
# q =  0.000000, 0.813043, 0.813043, [Reduced coords] 
# q =  0.813043, 0.000000, 0.813043, [Reduced coords] 
# q =  0.813043, 0.813043, 0.000000, [Reduced coords] 
# omega [eV]    RE(eps(q=1)) IM(eps(q=1) RE(eps(q=2) ) ... DOS   IDOS
  0.000   55.7451    1.3839   55.6907    1.4855   55.7021    1.4817   55.7207    1.3764   55.7988    1.5001   55.7945    1.5059   -0.0000   -0.0000
  0.010   55.7457    1.3839   55.6913    1.4856   55.7027    1.4818   55.7212    1.3765   55.7993    1.5001   55.7950    1.5060   -0.0000   -0.0000
  0.020   55.7474    1.3840   55.6930    1.4857   55.7044    1.4819   55.7229    1.3766   55.8010    1.5003   55.7967    1.5061   -0.0000   -0.0000
  0.030   55.7502    1.3842   55.6958    1.4859   55.7072    1.4821   55.7257    1.3768   55.8038    1.5005   55.7996    1.5064   -0.0000   -0.0000
  0.040   55.7541    1.3845   55.6997    1.4862   55.7111    1.4824   55.7297    1.3771   55.8078    1.5008   55.8035    1.5067   -0.0000   -0.0000
  0.050   55.7592    1.3849   55.7048    1.4866   55.7162    1.4828   55.7347    1.3775   55.8129    1.5012   55.8086    1.5071   -0.0000   -0.0000
  0.060   55.7654    1.3854   55.7110    1.4871   55.7223    1.4833   55.7409    1.3779   55.8191    1.5017   55.8148    1.5076   -0.0000   -0.0000
  0.070   55.7727    1.3859   55.7183    1.4877   55.7296    1.4839   55.7482    1.3785   55.8264    1.5023   55.8221    1.5081   -0.0000   -0.0000
  0.080   55.7812    1.3865   55.7267    1.4883   55.7381    1.4845   55.7567    1.3791   55.8349    1.5030   55.8306    1.5088   -0.0000   -0.0000
  0.090   55.7908    1.3872   55.7362    1.4891   55.7476    1.4853   55.7663    1.3798   55.8445    1.5037   55.8402    1.5096   -0.0000   -0.0000
  0.100   55.8015    1.3880   55.7469    1.4899   55.7583    1.4861   55.7770    1.3806   55.8553    1.5046   55.8510    1.5104   -0.0000   -0.0000
  0.110   55.8133    1.3889   55.7587    1.4908   55.7701    1.4870   55.7888    1.3815   55.8671    1.5055   55.8628    1.5114   -0.0000   -0.0000
  0.120   55.8263    1.3899   55.7717    1.4919   55.7831    1.4881   55.8018    1.3824   55.8801    1.5066   55.8758    1.5124   -0.0000   -0.0000
  0.130   55.8404    1.3909   55.7858    1.4930   55.7972    1.4892   55.8159    1.3835   55.8943    1.5077   55.8900    1.5135   -0.0000   -0.0000
  0.140   55.8557    1.3920   55.8010    1.4942   55.8124    1.4904   55.8311    1.3846   55.9096    1.5089   55.9053    1.5148   -0.0000   -0.0000
  0.150   55.8721    1.3933   55.8173    1.4955   55.8287    1.4917   55.8475    1.3858   55.9260    1.5102   55.9217    1.5161   -0.0000   -0.0000
  0.160   55.8896    1.3946   55.8348    1.4968   55.8462    1.4930   55.8651    1.3871   55.9436    1.5116   55.9393    1.5175   -0.0000   -0.0000
  0.170   55.9083    1.3959   55.8535    1.4983   55.8649    1.4945   55.8837    1.3885   55.9623    1.5131   55.9580    1.5190   -0.0000   -0.0000
  0.180   55.9281    1.3974   55.8732    1.4999   55.8847    1.4961   55.9035    1.3900   55.9822    1.5147   55.9779    1.5205   -0.0000   -0.0000
  0.190   55.9491    1.3990   55.8941    1.5015   55.9056    1.4977   55.9245    1.3915   56.0033    1.5164   55.9989    1.5222   -0.0000   -0.0000
  0.200   55.9712    1.4006   55.9162    1.5032   55.9277    1.4994   55.9466    1.3932   56.0254    1.5181   56.0211    1.5240   -0.0000   -0.0000
  0.210   55.9945    1.4023   55.9394    1.5051   55.9509    1.5013   55.9699    1.3949   56.0488    1.5200   56.0445    1.5259   -0.0000   -0.0000
  0.220   56.0189    1.4042   55.9638    1.5070   55.9753    1.5032   55.9943    1.3967   56.0733    1.5219   56.0690    1.5278   -0.0000   -0.0000
  0.230   56.0445    1.4061   55.9893    1.5090   56.0008    1.5052   56.0199    1.3986   56.0990    1.5240   56.0946    1.5299   -0.0000   -0.0000
  0.240   56.0713    1.4081   56.0160    1.5111   56.0275    1.5073   56.0467    1.4006   56.1258    1.5261   56.1215    1.5320   -0.0000   -0.0000
  0.250   56.0992    1.4101   56.0439    1.5133   56.0554    1.5095   56.0746    1.4027   56.1538    1.5284   56.1495    1.5343   -0.0000   -0.0000
  0.260   56.1283    1.4123   56.0729    1.5156   56.0844    1.5118   56.1037    1.4049   56.1830    1.5307   56.1787    1.5366   -0.0000   -0.0000
  0.270   56.1586    1.4146   56.1031    1.5180   56.1146    1.5142   56.1339    1.4071   56.2133    1.5331   56.2090    1.5390   -0.0000   -0.0000
  0.280   56.1901    1.4169   56.1345    1.5205   56.1460    1.5167   56.1654    1.4095   56.2449    1.5357   56.2406    1.5416   -0.0000   -0.0000
  0.290   56.2227    1.4194   56.1670    1.5231   56.1786    1.5193   56.1980    1.4119   56.2776    1.5383   56.2733    1.5442   -0.0000   -0.0000
  0.300   56.2565    1.4219   56.2008    1.5258   56.2123    1.5220   56.2318    1.4144   56.3115    1.5410   56.3072    1.5469   -0.0000   -0.0000
  0.310   56.2916    1.4245   56.2357    1.5285   56.2472    1.5247   56.2668    1.4170   56.3466    1.5438   56.3423    1.5497   -0.0000   -0.0000
  0.320   56.3278    1.4272   56.2718    1.5314   56.2834    1.5276   56.3030    1.4198   56.3830    1.5468   56.3786    1.5527   -0.0000   -0.0000
  0.330   56.3652    1.4300   56.3091    1.5344   56.3207    1.5306   56.3404    1.4226   56.4205    1.5498   56.4161    1.5557   -0.0000   -0.0000
  0.340   56.4038    1.4329   56.3477    1.5375   56.3592    1.5336   56.3790    1.4255   56.4592    1.5529   56.4549    1.5588   -0.0000   -0.0000
  0.350   56.4437    1.4359   56.3874    1.5406   56.3990    1.5368   56.4189    1.4284   56.4991    1.5561   56.4948    1.5620   -0.0000   -0.0000
  0.360   56.4847    1.4390   56.4283    1.5439   56.4399    1.5401   56.4599    1.4315   56.5403    1.5594   56.5360    1.5653   -0.0000   -0.0000
  0.370   56.5270    1.4422   56.4705    1.5473   56.4821    1.5434   56.5021    1.4347   56.5827    1.5629   56.5784    1.5688   -0.0000   -0.0000
  0.380   56.5705    1.4454   56.5139    1.5507   56.5255    1.5469   56.5456    1.4380   56.6263    1.5664   56.6220    1.5723   -0.0000   -0.0000
  0.390   56.6152    1.4488   56.5585    1.5543   56.5701    1.5505   56.5903    1.4414   56.6712    1.5700   56.6668    1.5759   -0.0000   -0.0000
  0.400   56.6612    1.4523   56.6043    1.5580   56.6160    1.5541   56.6363    1.4448   56.7173    1.5738   56.7129    1.5797   -0.0000   -0.0000
  0.410   56.7084    1.4559   56.6514    1.5617   56.6631    1.5579   56.6835    1.4484   56.7646    1.5776   56.7603    1.5835   -0.0000   -0.0000
  0.420   56.7569    1.4595   56.6998    1.5656   56.7115    1.5618   56.7319    1.4521   56.8132    1.5815   56.8089    1.5875   -0.0000   -0.0000
  0.430   56.8066    1.4633   56.7494    1.5696   56.7611    1.5658   56.7817    1.4558   56.8631    1.5856   56.8587    1.5915   -0.0000   -0.0000
  0.440   56.8576    1.4672   56.8002    1.5737   56.8120    1.5699   56.8326    1.4597   56.9142    1.5898   56.9099    1.5957   -0.0000   -0.0000
  0.450   56.9099    1.4711   56.8524    1.5779   56.8641    1.5741   56.8849    1.4637   56.9666    1.5940   56.9623    1.6000   -0.0000   -0.0000
  0.460   56.9634    1.4752   56.9058    1.5822   56.9175    1.5784   56.9384    1.4677   57.0203    1.5984   57.0160    1.6043   -0.0000   -0.0000
  0.470   57.0183    1.4794   56.9605    1.5866   56.9722    1.5828   56.9932    1.4719   57.0753    1.6029   57.0710    1.6088   -0.0000   -0.0000
  0.480   57.0744    1.4836   57.0165    1.5912   57.0282    1.5873   57.0493    1.4762   57.1316    1.6075   57.1272    1.6134   -0.0000   -0.0000
  0.490   57.1319    1.4880   57.0737    1.5958   57.0855    1.5919   57.1067    1.4806   57.1892    1.6122   57.1848    1.6182   -0.0000   -0.0000
  0.500   57.1906    1.4925   57.1323    1.6005   57.1441    1.5967   57.1655    1.4850   57.2481    1.6171   57.2437    1.6230   -0.0000   -0.0000
  0.510   57.2507    1.4971   57.1922    1.6054   57.2041    1.6015   57.2255    1.4896   57.3083    1.6220   57.3040    1.6279   -0.0000   -0.0000
  0.520   57.3121    1.5018   57.2534    1.6104   57.2653    1.6065   57.2869    1.4943   57.3699    1.6271   57.3655    1.6330   -0.0000   -0.0000
  0.530   57.3748    1.5066   57.3160    1.6155   57.3279    1.6116   57.3496    1.4992   57.4328    1.6322   57.4284    1.6382   -0.0000   -0.0000
  0.540   57.4389    1.5115   57.3799    1.6207   57.3918    1.6168   57.4136    1.5041   57.4970    1.6375   57.4927    1.6435   -0.0000   -0.0000
  0.550   57.5043    1.5166   57.4451    1.6260   57.4570    1.6221   57.4790    1.5091   57.5626    1.6430   57.5583    1.6489   -0.0000   -0.0000
  0.560   57.5711    1.5217   57.5117    1.6315   57.5237    1.6276   57.5458    1.5143   57.6296    1.6485   57.6252    1.6544   -0.0000   -0.0000
  0.570   57.6392    1.5270   57.5797    1.6370   57.5917    1.6332   57.6139    1.5195   57.6980    1.6542   57.6936    1.6601   -0.0000   -0.0000
  0.580   57.7088    1.5323   57.6491    1.6427   57.6610    1.6388   57.6834    1.5249   57.7677    1.6599   57.7633    1.6659   -0.0000   -0.0000
  0.590   57.7797    1.5378   57.7198    1.6485   57.7318    1.6446   57.7543    1.5304   57.8388    1.6659   57.8344    1.6718   -0.0000   -0.0000
  0.600   57.8520    1.5434   57.7919    1.6545   57.8039    1.6506   57.8266    1.5360   57.9114    1.6719   57.9069    1.6779   -0.0000   -0.0000
  0.610   57.9258    1.5492   57.8655    1.6605   57.8775    1.6566   57.9003    1.5417   57.9853    1.6781   57.9809    1.6840   -0.0000   -0.0000
  0.620   58.0009    1.5550   57.9404    1.6667   57.9525    1.6628   57.9754    1.5476   58.0607    1.6843   58.0563    1.6903   -0.0000   -0.0000
  0.630   58.0775    1.5610   58.0168    1.6730   58.0289    1.6691   58.0520    1.5535   58.1375    1.6908   58.1331    1.6967   -0.0000   -0.0000
  0.640   58.1556    1.5671   58.0946    1.6795   58.1068    1.6756   58.1300    1.5596   58.2158    1.6973   58.2113    1.7033   -0.0000   -0.0000
  0.650   58.2351    1.5733   58.1739    1.6860   58.1861    1.6821   58.2095    1.5659   58.2955    1.7040   58.2910    1.7100   -0.0000   -0.0000
  0.660   58.3160    1.5797   58.2547    1.6928   58.2668    1.6889   58.2904    1.5722   58.3767    1.7108   58.3722    1.7168   -0.0000   -0.0000
  0.670   58.3985    1.5861   58.3369    1.6996   58.3491    1.6957   58.3729    1.5787   58.4593    1.7178   58.4549    1.7238   -0.0000   -0.0000
  0.680   58.4824    1.5927   58.4206    1.7066   58.4328    1.7027   58.4568    1.5853   58.5435    1.7249   58.5391    1.7309   -0.0000   -0.0000
  0.690   58.5679    1.5995   58.5058    1.7137   58.5180    1.7098   58.5422    1.5920   58.6292    1.7322   58.6248    1.7382   -0.0000   -0.0000
  0.700   58.6548    1.6063   58.5925    1.7210   58.6048    1.7171   58.6291    1.5989   58.7164    1.7395   58.7120    1.7455   -0.0000   -0.0000
  0.710   58.7433    1.6133   58.6808    1.7284   58.6931    1.7245   58.7176    1.6059   58.8052    1.7471   58.8007    1.7531   -0.0000   -0.0000
  0.720   58.8334    1.6205   58.7706    1.7359   58.7829    1.7320   58.8076    1.6130   58.8954    1.7548   58.8910    1.7608   -0.0000   -0.0000
  0.730   58.9250    1.6277   58.8619    1.7436   58.8742    1.7397   58.8991    1.6203   58.9873    1.7626   58.9828    1.7686   -0.0000   -0.0000
  0.740   59.0181    1.6352   58.9548    1.7514   58.9672    1.7475   58.9922    1.6277   59.0807    1.7706   59.0763    1.7766   -0.0000   -0.0000
  0.750   59.1129    1.6427   59.0493    1.7594   59.0617    1.7555   59.0870    1.6353   59.1757    1.7787   59.1713    1.7847   -0.0000   -0.0000
  0.760   59.2092    1.6504   59.1454    1.7676   59.1578    1.7636   59.1833    1.6430   59.2724    1.7870   59.2679    1.7930   -0.0000   -0.0000
  0.770   59.3072    1.6583   59.2430    1.7759   59.2555    1.7719   59.2812    1.6508   59.3706    1.7954   59.3661    1.8014   -0.0000   -0.0000
  0.780   59.4068    1.6663   59.3424    1.7843   59.3548    1.7804   59.3808    1.6588   59.4705    1.8040   59.4660    1.8100   -0.0000   -0.0000
  0.790   59.5080    1.6744   59.4433    1.7929   59.4558    1.7890   59.4820    1.6670   59.5720    1.8128   59.5675    1.8188   -0.0000   -0.0000
  0.800   59.6109    1.6827   59.5459    1.8017   59.5585    1.7978   59.5848    1.6753   59.6752    1.8217   59.6707    1.8277   -0.0000   -0.0000
  0.810   59.7155    1.6911   59.6502    1.8106   59.6628    1.8067   59.6894    1.6838   59.7801    1.8308   59.7756    1.8368   -0.0000   -0.0000
  0.820   59.8218    1.6998   59.7562    1.8197   59.7688    1.8158   59.7956    1.6924   59.8867    1.8401   59.8822    1.8461   -0.0000   -0.0000
  0.830   59.9298    1.7085   59.8639    1.8290   59.8765    1.8250   59.9036    1.7011   59.9950    1.8495   59.9905    1.8555   -0.0000   -0.0000
  0.840   60.0395    1.7175   59.9733    1.8384   59.9859    1.8345   60.0132    1.7101   60.1050    1.8591   60.1005    1.8651   -0.0000   -0.0000
  0.850   60.1510    1.7265   60.0844    1.8480   60.0971    1.8441   60.1247    1.7192   60.2168    1.8689   60.2123    1.8749   -0.0000   -0.0000
  0.860   60.2642    1.7358   60.1973    1.8578   60.2100    1.8539   60.2379    1.7284   60.3304    1.8788   60.3258    1.8849   -0.0000   -0.0000
  0.870   60.3792    1.7452   60.3120    1.8678   60.3248    1.8638   60.3528    1.7379   60.4457    1.8890   60.4412    1.8950   -0.0000   -0.0000
  0.880   60.4960    1.7548   60.4285    1.8779   60.4413    1.8740   60.4696    1.7475   60.5629    1.8993   60.5583    1.9054   -0.0000   -0.0000
  0.890   60.6147    1.7646   60.5468    1.8883   60.5596    1.8843   60.5882    1.7573   60.6818    1.9098   60.6773    1.9159   -0.0000   -0.0000
  0.900   60.7351    1.7746   60.6669    1.8988   60.6798    1.8948   60.7086    1.7672   60.8027    1.9205   60.7981    1.9266   -0.0000   -0.0000
  0.910   60.8575    1.7847   60.7889    1.9095   60.8018    1.9055   60.8309    1.7774   60.9254    1.9314   60.9208    1.9375   -0.0000   -0.0000
  0.920   60.9817    1.7950   60.9127    1.9204   60.9257    1.9164   60.9551    1.7877   61.0499    1.9425   61.0454    1.9486   -0.0000   -0.0000
  0.930   61.1078    1.8055   61.0385    1.9315   61.0515    1.9275   61.0812    1.7982   61.1764    1.9538   61.1719    1.9599   -0.0000   -0.0000
  0.940   61.2359    1.8162   61.1661    1.9427   61.1792    1.9388   61.2092    1.8089   61.3049    1.9653   61.3003    1.9714   -0.0000   -0.0000
  0.950   61.3659    1.8271   61.2958    1.9542   61.3088    1.9502   61.3391    1.8198   61.4352    1.9770   61.4307    1.9831   -0.0000   -0.0000
  0.960   61.4978    1.8382   61.4273    1.9659   61.4404    1.9619   61.4710    1.8309   61.5676    1.9889   61.5630    1.9950   -0.0000   -0.0000
  0.970   61.6318    1.8494   61.5609    1.9778   61.5740    1.9738   61.6050    1.8422   61.7019    2.0010   61.6974    2.0071   -0.0000   -0.0000
  0.980   61.7677    1.8609   61.6965    1.9900   61.7096    1.9860   61.7409    1.8537   61.8383    2.0134   61.8337    2.0195   -0.0000   -0.0000
  0.990   61.9058    1.8726   61.8341    2.0023   61.8473    1.9983   61.8788    1.8654   61.9767    2.0259   61.9721    2.0320   -0.0000   -0.0000
  1.000   62.0458    1.8845   61.9737    2.0148   61.9870    2.0108   62.0189    1.8773   62.1172    2.0387   62.1126    2.0448   -0.0000   -0.0000
  1.010   62.1880    1.8966   62.1154    2.0276   62.1287    2.0236   62.1610    1.8894   62.2598    2.0517   62.2552    2.0578   -0.0000   -0.0000
  1.020   62.3323    1.9089   62.2593    2.0406   62.2726    2.0366   62.3052    1.9017   62.4045    2.0650   62.3999    2.0711   -0.0000   -0.0000
  1.030   62.4787    1.9215   62.4053    2.0539   62.4186    2.0498   62.4516    1.9143   62.5513    2.0785   62.5467    2.0846   -0.0000   -0.0000
  1.040   62.6272    1.9342   62.5534    2.0673   62.5668    2.0633   62.6001    1.9271   62.7004    2.0922   62.6958    2.0983   -0.0000   -0.0000
  1.050   62.7780    1.9472   62.7037    2.0811   62.7172    2.0770   62.7509    1.9401   62.8516    2.1062   62.8470    2.1123   -0.0000   -0.0000
  1.060   62.9310    1.9605   62.8562    2.0950   62.8698    2.0910   62.9038    1.9533   63.0051    2.1204   63.0004    2.1265   -0.0000   -0.0000
  1.070   63.0863    1.9739   63.0110    2.1092   63.0246    2.1052   63.0590    1.9668   63.1608    2.1349   63.1562    2.1410   -0.0000   -0.0000
  1.080   63.2438    1.9876   63.1681    2.1237   63.1817    2.1196   63.2165    1.9806   63.3188    2.1496   63.3142    2.1557   -0.0000   -0.0000
  1.090   63.4036    2.0016   63.3274    2.1384   63.3411    2.1344   63.3763    1.9945   63.4791    2.1646   63.4745    2.1707   -0.0000   -0.0000
  1.100   63.5658    2.0158   63.4891    2.1534   63.5028    2.1493   63.5384    2.0088   63.6418    2.1798   63.6371    2.1860   -0.0000   -0.0000
  1.110   63.7303    2.0303   63.6531    2.1686   63.6669    2.1646   63.7029    2.0232   63.8068    2.1954   63.8022    2.2015   -0.0000   -0.0000
  1.120   63.8973    2.0450   63.8196    2.1842   63.8334    2.1801   63.8698    2.0380   63.9743    2.2112   63.9696    2.2173   -0.0000   -0.0000
  1.130   64.0667    2.0600   63.9884    2.2000   64.0023    2.1959   64.0392    2.0530   64.1442    2.2273   64.1395    2.2335   -0.0000   -0.0000
  1.140   64.2385    2.0752   64.1597    2.2160   64.1737    2.2120   64.2110    2.0683   64.3166    2.2437   64.3119    2.2498   -0.0000   -0.0000
  1.150   64.4129    2.0907   64.3336    2.2324   64.3475    2.2284   64.3853    2.0838   64.4915    2.2604   64.4868    2.2665   -0.0000   -0.0000
  1.160   64.5898    2.1066   64.5099    2.2491   64.5239    2.2450   64.5621    2.0997   64.6689    2.2774   64.6642    2.2835   -0.0000   -0.0000
  1.170   64.7692    2.1227   64.6888    2.2661   64.7029    2.2620   64.7416    2.1158   64.8489    2.2947   64.8443    2.3008   -0.0000   -0.0000
  1.180   64.9513    2.1391   64.8703    2.2833   64.8844    2.2793   64.9236    2.1322   65.0316    2.3123   65.0269    2.3184   -0.0000   -0.0000
  1.190   65.1360    2.1557   65.0545    2.3009   65.0686    2.2968   65.1083    2.1489   65.2169    2.3302   65.2122    2.3364   -0.0000   -0.0000
  1.200   65.3234    2.1727   65.2413    2.3188   65.2555    2.3147   65.2956    2.1660   65.4049    2.3485   65.4002    2.3546   -0.0000   -0.0000
  1.210   65.5136    2.1900   65.4308    2.3371   65.4451    2.3330   65.4857    2.1833   65.5956    2.3670   65.5909    2.3732   -0.0000   -0.0000
  1.220   65.7065    2.2077   65.6231    2.3556   65.6374    2.3515   65.6786    2.2010   65.7891    2.3860   65.7844    2.3921   -0.0000   -0.0000
  1.230   65.9022    2.2256   65.8181    2.3745   65.8325    2.3704   65.8742    2.2189   65.9854    2.4053   65.9807    2.4114   -0.0000   -0.0000
  1.240   66.1007    2.2439   66.0161    2.3938   66.0305    2.3897   66.0727    2.2372   66.1846    2.4249   66.1799    2.4311   -0.0000   -0.0000
  1.250   66.3021    2.2625   66.2168    2.4134   66.2314    2.4093   66.2741    2.2559   66.3866    2.4449   66.3819    2.4510   -0.0000   -0.0000
  1.260   66.5065    2.2815   66.4205    2.4334   66.4351    2.4293   66.4785    2.2749   66.5917    2.4652   66.5870    2.4714   -0.0000   -0.0000
  1.270   66.7138    2.3008   66.6272    2.4537   66.6419    2.4496   66.6858    2.2942   66.7997    2.4860   66.7950    2.4921   -0.0000   -0.0000
  1.280   66.9242    2.3204   66.8369    2.4744   66.8516    2.4703   66.8961    2.3140   67.0107    2.5071   67.0060    2.5133   -0.0000   -0.0000
  1.290   67.1376    2.3405   67.0496    2.4955   67.0644    2.4914   67.1095    2.3340   67.2248    2.5286   67.2201    2.5348   -0.0000   -0.0000
  1.300   67.3542    2.3609   67.2655    2.5170   67.2803    2.5129   67.3260    2.3545   67.4421    2.5505   67.4374    2.5567   -0.0000   -0.0000
  1.310   67.5739    2.3817   67.4845    2.5389   67.4994    2.5348   67.5457    2.3753   67.6625    2.5728   67.6578    2.5790   -0.0000   -0.0000
  1.320   67.7968    2.4029   67.7067    2.5612   67.7216    2.5571   67.7686    2.3966   67.8862    2.5956   67.8814    2.6018   -0.0000   -0.0000
  1.330   68.0230    2.4245   67.9321    2.5839   67.9472    2.5798   67.9948    2.4182   68.1131    2.6188   68.1084    2.6250   -0.0000   -0.0000
  1.340   68.2526    2.4465   68.1609    2.6070   68.1760    2.6029   68.2243    2.4403   68.3434    2.6424   68.3387    2.6486   -0.0000   -0.0000
  1.350   68.4855    2.4689   68.3930    2.6306   68.4082    2.6265   68.4572    2.4627   68.5771    2.6665   68.5723    2.6726   -0.0000   -0.0000
  1.360   68.7218    2.4917   68.6286    2.6547   68.6438    2.6505   68.6935    2.4857   68.8142    2.6910   68.8094    2.6972   -0.0000   -0.0000
  1.370   68.9616    2.5150   68.8676    2.6792   68.8829    2.6750   68.9333    2.5090   69.0548    2.7160   69.0501    2.7221   -0.0000   -0.0000
  1.380   69.2050    2.5387   69.1102    2.7041   69.1255    2.7000   69.1766    2.5328   69.2990    2.7414   69.2942    2.7476   -0.0000   -0.0000
  1.390   69.4520    2.5629   69.3563    2.7296   69.3718    2.7254   69.4236    2.5571   69.5468    2.7674   69.5420    2.7736   -0.0000   -0.0000
  1.400   69.7026    2.5876   69.6061    2.7555   69.6216    2.7514   69.6742    2.5818   69.7983    2.7939   69.7935    2.8001   -0.0000   -0.0000
  1.410   69.9570    2.6127   69.8596    2.7819   69.8752    2.7778   69.9286    2.6070   70.0535    2.8209   70.0488    2.8270   -0.0000   -0.0000
  1.420   70.2152    2.6384   70.1169    2.8089   70.1326    2.8048   70.1867    2.6327   70.3126    2.8484   70.3078    2.8545   -0.0000   -0.0000
  1.430   70.4772    2.6645   70.3781    2.8364   70.3938    2.8322   70.4487    2.6589   70.5755    2.8764   70.5707    2.8826   -0.0000   -0.0000
  1.440   70.7432    2.6912   70.6431    2.8644   70.6589    2.8602   70.7147    2.6857   70.8423    2.9050   70.8376    2.9112   -0.0000   -0.0000
  1.450   71.0131    2.7184   70.9121    2.8930   70.9280    2.8888   70.9846    2.7129   71.1132    2.9342   71.1085    2.9404   -0.0000   -0.0000
  1.460   71.2872    2.7461   71.1852    2.9221   71.2012    2.9180   71.2587    2.7407   71.3882    2.9640   71.3835    2.9701   -0.0000   -0.0000
  1.470   71.5654    2.7744   71.4624    2.9518   71.4785    2.9477   71.5368    2.7691   71.6673    2.9943   71.6626    3.0005   -0.0000   -0.0000
  1.480   71.8478    2.8032   71.7439    2.9821   71.7600    2.9780   71.8192    2.7981   71.9507    3.0253   71.9460    3.0314   -0.0000   -0.0000
  1.490   72.1344    2.8327   72.0295    3.0131   72.0458    3.0089   72.1059    2.8276   72.2384    3.0568   72.2337    3.0630   -0.0000   -0.0000
  1.500   72.4255    2.8627   72.3196    3.0446   72.3359    3.0405   72.3970    2.8577   72.5305    3.0891   72.5257    3.0952   -0.0000   -0.0000
  1.510   72.7210    2.8934   72.6141    3.0768   72.6305    3.0727   72.6925    2.8885   72.8270    3.1219   72.8223    3.1281   -0.0000   -0.0000
  1.520   73.0211    2.9246   72.9131    3.1097   72.9295    3.1055   72.9926    2.9199   73.1282    3.1555   73.1234    3.1616   -0.0000   -0.0000
  1.530   73.3258    2.9566   73.2167    3.1432   73.2332    3.1390   73.2973    2.9519   73.4339    3.1897   73.4292    3.1958   -0.0000   -0.0000
  1.540   73.6352    2.9892   73.5250    3.1774   73.5416    3.1732   73.6067    2.9846   73.7444    3.2247   73.7397    3.2308   -0.0000   -0.0000
  1.550   73.9494    3.0224   73.8380    3.2123   73.8548    3.2082   73.9210    3.0180   74.0598    3.2604   74.0550    3.2665   -0.0000   -0.0000
  1.560   74.2685    3.0564   74.1560    3.2480   74.1728    3.2438   74.2401    3.0521   74.3800    3.2968   74.3753    3.3029   -0.0000   -0.0000
  1.570   74.5926    3.0911   74.4789    3.2844   74.4959    3.2802   74.5642    3.0869   74.7053    3.3340   74.7005    3.3401   -0.0000   -0.0000
  1.580   74.9218    3.1265   74.8069    3.3215   74.8239    3.3174   74.8934    3.1224   75.0356    3.3720   75.0309    3.3780   -0.0000   -0.0000
  1.590   75.2562    3.1627   75.1401    3.3595   75.1572    3.3553   75.2279    3.1588   75.3712    3.4108   75.3665    3.4168   -0.0000   -0.0000
  1.600   75.5959    3.1996   75.4785    3.3982   75.4957    3.3941   75.5676    3.1959   75.7121    3.4504   75.7074    3.4564   -0.0000   -0.0000
  1.610   75.9410    3.2374   75.8223    3.4378   75.8396    3.4337   75.9127    3.2338   76.0585    3.4909   76.0538    3.4969   -0.0000   -0.0000
  1.620   76.2916    3.2760   76.1716    3.4783   76.1890    3.4741   76.2633    3.2725   76.4104    3.5322   76.4057    3.5382   -0.0000   -0.0000
  1.630   76.6478    3.3154   76.5265    3.5196   76.5440    3.5155   76.6196    3.3120   76.7679    3.5745   76.7632    3.5805   -0.0000   -0.0000
  1.640   77.0098    3.3557   76.8871    3.5618   76.9047    3.5577   76.9816    3.3525   77.1312    3.6176   77.1265    3.6236   -0.0000   -0.0000
  1.650   77.3776    3.3968   77.2535    3.6050   77.2713    3.6009   77.3495    3.3938   77.5004    3.6618   77.4957    3.6677   -0.0000   -0.0000
  1.660   77.7514    3.4389   77.6259    3.6491   77.6438    3.6450   77.7234    3.4361   77.8756    3.7069   77.8709    3.7128   -0.0000   -0.0000
  1.670   78.1314    3.4820   78.0044    3.6942   78.0224    3.6901   78.1034    3.4793   78.2570    3.7530   78.2523    3.7589   -0.0000   -0.0000
  1.680   78.5176    3.5260   78.3891    3.7403   78.4072    3.7362   78.4897    3.5235   78.6446    3.8002   78.6399    3.8061   -0.0000   -0.0000
  1.690   78.9101    3.5710   78.7801    3.7874   78.7983    3.7833   78.8823    3.5687   79.0386    3.8484   79.0340    3.8543   -0.0000   -0.0000
  1.700   79.3092    3.6170   79.1776    3.8356   79.1959    3.8315   79.2815    3.6149   79.4392    3.8977   79.4346    3.9036   -0.0000   -0.0000
  1.710   79.7149    3.6641   79.5818    3.8850   79.6002    3.8809   79.6873    3.6622   79.8465    3.9482   79.8419    3.9540   -0.0000   -0.0000
  1.720   80.1275    3.7123   79.9927    3.9354   80.0112    3.9313   80.1000    3.7107   80.2606    3.9998   80.2560    4.0056   -0.0000   -0.0000
  1.730   80.5470    3.7616   80.4105    3.9870   80.4292    3.9829   80.5196    3.7602   80.6817    4.0526   80.6771    4.0584   -0.0000   -0.0000
  1.740   80.9736    3.8120   80.8355    4.0398   80.8542    4.0358   80.9463    3.8109   81.1100    4.1067   81.1054    4.1124   -0.0000   -0.0000
  1.750   81.4075    3.8637   81.2676    4.0939   81.2865    4.0898   81.3803    3.8628   81.5455    4.1620   81.5410    4.1678   -0.0000   -0.0000
  1.760   81.8488    3.9166   81.7072    4.1492   81.7262    4.1452   81.8218    3.9159   81.9886    4.2186   81.9841    4.2244   -0.0000   -0.0000
  1.770   82.2978    3.9707   82.1543    4.2059   82.1735    4.2018   82.2709    3.9704   82.4393    4.2767   82.4348    4.2824   -0.0000   -0.0000
  1.780   82.7545    4.0262   82.6092    4.2639   82.6285    4.2599   82.7278    4.0261   82.8979    4.3361   82.8934    4.3417   -0.0000   -0.0000
  1.790   83.2193    4.0830   83.0720    4.3233   83.0915    4.3193   83.1927    4.0832   83.3644    4.3969   83.3600    4.4025   -0.0000   -0.0000
  1.800   83.6922    4.1412   83.5430    4.3842   83.5625    4.3802   83.6658    4.1417   83.8392    4.4592   83.8348    4.4649   -0.0000   -0.0000
  1.810   84.1734    4.2009   84.0222    4.4466   84.0419    4.4425   84.1473    4.2017   84.3224    4.5231   84.3180    4.5287   -0.0000   -0.0000
  1.820   84.6633    4.2620   84.5100    4.5105   84.5299    4.5065   84.6373    4.2631   84.8142    4.5886   84.8098    4.5941   -0.0000   -0.0000
  1.830   85.1619    4.3247   85.0065    4.5760   85.0265    4.5720   85.1361    4.3261   85.3148    4.6557   85.3104    4.6612   -0.0000   -0.0000
  1.840   85.6695    4.3889   85.5120    4.6431   85.5321    4.6391   85.6439    4.3907   85.8245    4.7245   85.8201    4.7299   -0.0000   -0.0000
  1.850   86.1863    4.4548   86.0266    4.7119   86.0469    4.7080   86.1610    4.4570   86.3434    4.7950   86.3391    4.8004   -0.0000   -0.0000
  1.860   86.7126    4.5224   86.5506    4.7825   86.5710    4.7786   86.6875    4.5250   86.8718    4.8674   86.8675    4.8727   -0.0000   -0.0000
  1.870   87.2485    4.5917   87.0842    4.8549   87.1048    4.8510   87.2237    4.5947   87.4099    4.9416   87.4057    4.9469   -0.0000   -0.0000
  1.880   87.7944    4.6629   87.6277    4.9292   87.6484    4.9253   87.7698    4.6662   87.9581    5.0177   87.9538    5.0230   -0.0000   -0.0000
  1.890   88.3504    4.7359   88.1813    5.0055   88.2022    5.0016   88.3262    4.7397   88.5164    5.0959   88.5122    5.1012   -0.0000   -0.0000
  1.900   88.9170    4.8109   88.7453    5.0837   88.7664    5.0799   88.8930    4.8151   89.0853    5.1761   89.0812    5.1813   -0.0000   -0.0000
  1.910   89.4942    4.8878   89.3200    5.1641   89.3412    5.1602   89.4705    4.8925   89.6650    5.2585   89.6609    5.2637   -0.0000   -0.0000
  1.920   90.0824    4.9669   89.9056    5.2465   89.9270    5.2427   90.0591    4.9721   90.2557    5.3431   90.2516    5.3482   -0.0000   -0.0000
  1.930   90.6820    5.0481   90.5025    5.3313   90.5241    5.3275   90.6591    5.0538   90.8578    5.4300   90.8538    5.4351   -0.0000   -0.0000
  1.940   91.2932    5.1316   91.1109    5.4183   91.1326    5.4145   91.2706    5.1378   91.4716    5.5193   91.4676    5.5243   -0.0000   -0.0000
  1.950   91.9163    5.2173   91.7311    5.5077   91.7530    5.5040   91.8941    5.2241   92.0973    5.6111   92.0934    5.6160   -0.0000   -0.0000
  1.960   92.5516    5.3055   92.3636    5.5997   92.3857    5.5959   92.5299    5.3128   92.7354    5.7054   92.7316    5.7102   -0.0000   -0.0000
  1.970   93.1996    5.3961   93.0085    5.6942   93.0308    5.6905   93.1783    5.4041   93.3862    5.8024   93.3824    5.8072   -0.0000   -0.0000
  1.980   93.8605    5.4894   93.6663    5.7913   93.6888    5.7877   93.8397    5.4979   94.0500    5.9021   94.0463    5.9068   -0.0000   -0.0000
  1.990   94.5348    5.5853   94.3374    5.8913   94.3600    5.8877   94.5144    5.5945   94.7272    6.0047   94.7235    6.0094   -0.0000   -0.0000
  2.000   95.2227    5.6840   95.0221    5.9941   95.0449    5.9905   95.2029    5.6939   95.4182    6.1103   95.4146    6.1149   -0.0000   -0.0000
  2.010   95.9247    5.7856   95.7207    6.1000   95.7438    6.0964   95.9055    5.7962   96.1233    6.2190   96.1198    6.2235   -0.0000   -0.0000
  2.020   96.6413    5.8903   96.4338    6.2089   96.4571    6.2054   96.6226    5.9016   96.8431    6.3309   96.8396    6.3353   -0.0000   -0.0000
  2.030   97.3728    5.9980   97.1617    6.3211   97.1852    6.3176   97.3547    6.0101   97.5778    6.4462   97.5745    6.4505   -0.0000   -0.0000
  2.040   98.1197    6.1090   97.9050    6.4366   97.9286    6.4332   98.1022    6.1219   98.3281    6.5649   98.3248    6.5691   -0.0000   -0.0000
  2.050   98.8825    6.2234   98.6639    6.5557   98.6878    6.5523   98.8656    6.2372   99.0943    6.6872   99.0911    6.6913   -0.0000   -0.0000
  2.060   99.6616    6.3414   99.4391    6.6784   99.4632    6.6750   99.6454    6.3560   99.8770    6.8133   99.8738    6.8173   -0.0000   -0.0000
  2.070  100.4575    6.4630  100.2310    6.8049  100.2554    6.8016  100.4421    6.4785  100.6765    6.9433  100.6735    6.9473   -0.0000   -0.0000
  2.080  101.2708    6.5884  101.0402    6.9353  101.0648    6.9321  101.2562    6.6049  101.4936    7.0775  101.4907    7.0813   -0.0000   -0.0000
  2.090  102.1020    6.7178  101.8671    7.0699  101.8919    7.0667  102.0882    6.7353  102.3287    7.2158  102.3259    7.2195   -0.0000   -0.0000
  2.100  102.9517    6.8514  102.7124    7.2088  102.7375    7.2056  102.9388    6.8700  103.1823    7.3586  103.1797    7.3622   -0.0000   -0.0000
  2.110  103.8205    6.9894  103.5767    7.3521  103.6020    7.3490  103.8085    7.0090  104.0552    7.5061  104.0527    7.5096   -0.0000   -0.0000
  2.120  104.7091    7.1318  104.4605    7.5001  104.4860    7.4971  104.6979    7.1526  104.9479    7.6584  104.9455    7.6617   -0.0000   -0.0000
  2.130  105.6179    7.2790  105.3645    7.6530  105.3903    7.6501  105.6078    7.3010  105.8611    7.8157  105.8588    7.8189   -0.0000   -0.0000
  2.140  106.5478    7.4312  106.2894    7.8110  106.3155    7.8082  106.5388    7.4544  106.7955    7.9783  106.7933    7.9814   -0.0000   -0.0000
  2.150  107.4995    7.5885  107.2359    7.9744  107.2622    7.9716  107.4915    7.6131  107.7517    8.1465  107.7496    8.1494   -0.0000   -0.0000
  2.160  108.4736    7.7512  108.2047    8.1433  108.2313    8.1405  108.4668    7.7772  108.7305    8.3204  108.7287    8.3231   -0.0000   -0.0000
  2.170  109.4711    7.9196  109.1965    8.3180  109.2234    8.3154  109.4654    7.9471  109.7328    8.5003  109.7311    8.5029   -0.0000   -0.0000
  2.180  110.4926    8.0940  110.2123    8.4989  110.2395    8.4963  110.4882    8.1229  110.7593    8.6866  110.7577    8.6890   -0.0000   -0.0000
  2.190  111.5390    8.2745  111.2528    8.6861  111.2802    8.6836  111.5360    8.3051  111.8108    8.8795  111.8095    8.8818   -0.0000   -0.0000
  2.200  112.6112    8.4615  112.3189    8.8800  112.3466    8.8777  112.6096    8.4938  112.8884    9.0793  112.8872    9.0814   -0.0000   -0.0000
  2.210  113.7103    8.6554  113.4115    9.0810  113.4396    9.0787  113.7102    8.6894  113.9929    9.2865  113.9919    9.2883   -0.0000   -0.0000
  2.220  114.8370    8.8564  114.5317    9.2893  114.5601    9.2872  114.8385    8.8923  115.1253    9.5012  115.1245    9.5029   -0.0000   -0.0000
  2.230  115.9925    9.0650  115.6803    9.5054  115.7091    9.5033  115.9957    9.1028  116.2866    9.7240  116.2861    9.7255   -0.0000   -0.0000
  2.240  117.1779    9.2814  116.8586    9.7296  116.8877    9.7277  117.1828    9.3213  117.4780    9.9553  117.4777    9.9565   -0.0000   -0.0000
  2.250  118.3943    9.5062  118.0676    9.9624  118.0970    9.9605  118.4010    9.5483  118.7005   10.1954  118.7005   10.1964   -0.0000   -0.0000
  2.260  119.6429    9.7397  119.3085   10.2041  119.3382   10.2024  119.6515    9.7841  119.9555   10.4448  119.9557   10.4456   -0.0000   -0.0000
  2.270  120.9249    9.9824  120.5825   10.4553  120.6126   10.4537  120.9355   10.0292  121.2441   10.7040  121.2446   10.7045   -0.0000   -0.0000
  2.280  122.2417   10.2348  121.8910   10.7164  121.9215   10.7150  122.2544   10.2842  122.5677   10.9736  122.5685   10.9739   -0.0000   -0.0000
  2.290  123.5946   10.4974  123.2353   10.9880  123.2662   10.9868  123.6097   10.5495  123.9277   11.2541  123.9288   11.2541   -0.0000   -0.0000
  2.300  124.9852   10.7708  124.6170   11.2708  124.6482   11.2696  125.0026   10.8257  125.3256   11.5461  125.3270   11.5458   -0.0000   -0.0000
  2.310  126.4150   11.0556  126.0374   11.5652  126.0691   11.5642  126.4349   11.1135  126.7629   11.8503  126.7647   11.8497   -0.0000   -0.0000
  2.320  127.8857   11.3525  127.4983   11.8719  127.5304   11.8711  127.9082   11.4135  128.2413   12.1673  128.2435   12.1663   -0.0000   -0.0000
  2.330  129.3989   11.6620  129.0013   12.1917  129.0338   12.1911  129.4242   11.7264  129.7625   12.4978  129.7651   12.4966   -0.0000   -0.0000
  2.340  130.9565   11.9851  130.5483   12.5253  130.5812   12.5249  130.9847   12.0530  131.3285   12.8428  131.3314   12.8411   -0.0000   -0.0000
  2.350  132.5604   12.3223  132.1411   12.8735  132.1745   12.8733  132.5918   12.3941  132.9410   13.2029  132.9444   13.2009   -0.0000   -0.0000
  2.360  134.2127   12.6747  133.7818   13.2372  133.8157   13.2372  134.2473   12.7504  134.6022   13.5792  134.6061   13.5768   -0.0000   -0.0000
  2.370  135.9156   13.0432  135.4726   13.6173  135.5070   13.6176  135.9537   13.1231  136.3143   13.9726  136.3187   13.9698   -0.0000   -0.0000
  2.380  137.6713   13.4287  137.2157   14.0149  137.2505   14.0154  137.7131   13.5131  138.0796   14.3842  138.0846   14.3810   -0.0000   -0.0000
  2.390  139.4824   13.8322  139.0134   14.4310  139.0488   14.4317  139.5280   13.9214  139.9006   14.8151  139.9061   14.8114   -0.0000   -0.0000
  2.400  141.3513   14.2551  140.8685   14.8668  140.9044   14.8678  141.4011   14.3493  141.7798   15.2665  141.7859   15.2624   -0.0000   -0.0000
  2.410  143.2810   14.6984  142.7835   15.3236  142.8200   15.3249  143.3350   14.7981  143.7201   15.7399  143.7268   15.7353   -0.0000   -0.0000
  2.420  145.2742   15.1637  144.7615   15.8027  144.7985   15.8044  145.3329   15.2691  145.7243   16.2366  145.7318   16.2315   -0.0000   -0.0000
  2.430  147.3342   15.6523  146.8054   16.3057  146.8430   16.3077  147.3977   15.7638  147.7958   16.7582  147.8040   16.7525   -0.0000   -0.0000
  2.440  149.4643   16.1658  148.9185   16.8342  148.9567   16.8366  149.5330   16.2838  149.9377   17.3064  149.9467   17.3002   -0.0000   -0.0000
  2.450  151.6681   16.7060  151.1045   17.3900  151.1433   17.3927  151.7422   16.8310  152.1538   17.8832  152.1636   17.8763   -0.0000   -0.0000
  2.460  153.9493   17.2748  153.3669   17.9749  153.4064   17.9780  154.0291   17.4073  154.4477   18.4904  154.4584   18.4829   -0.0000   -0.0000
  2.470  156.3120   17.8743  155.7099   18.5911  155.7500   18.5946  156.3980   18.0147  156.8237   19.1303  156.8354   19.1222   -0.0000   -0.0000
  2.480  158.7607   18.5066  158.1376   19.2408  158.1785   19.2448  158.8532   18.6556  159.2861   19.8054  159.2988   19.7965   -0.0000   -0.0000
  2.490  161.2999   19.1743  160.6548   19.9265  160.6963   19.9311  161.3993   19.3324  161.8395   20.5182  161.8534   20.5085   -0.0000   -0.0000
  2.500  163.9347   19.8800  163.2662   20.6511  163.3085   20.6561  164.0415   20.0480  164.4891   21.2716  164.5041   21.2612   -0.0000   -0.0000
  2.510  166.6705   20.6268  165.9773   21.4174  166.0203   21.4230  166.7851   20.8053  167.2402   22.0688  167.2565   22.0575   -0.0000   -0.0000
  2.520  169.5130   21.4178  168.7936   22.2288  168.8375   22.2350  169.6359   21.6077  170.0986   22.9133  170.1163   22.9011   -0.0000   -0.0000
  2.530  172.4686   22.2567  171.7213   23.0889  171.7660   23.0957  172.6003   22.4588  173.0707   23.8089  173.0898   23.7958   -0.0000   -0.0000
  2.540  175.5438   23.1475  174.7670   24.0017  174.8126   24.0092  175.6849   23.3628  176.1630   24.7598  176.1838   24.7458   -0.0000   -0.0000
  2.550  178.7460   24.0944  177.9378   24.9716  177.9842   24.9799  178.8972   24.3240  179.3829   25.7707  179.4054   25.7557   -0.0000   -0.0000
  2.560  182.0831   25.1024  181.2413   26.0036  181.2887   26.0126  182.2449   25.3474  182.7383   26.8469  182.7627   26.8307   -0.0000   -0.0000
  2.570  185.5634   26.1768  184.6858   27.1030  184.7342   27.1129  185.7366   26.4385  186.2376   27.9940  186.2640   27.9767   -0.0000   -0.0000
  2.580  189.1963   27.3237  188.2804   28.2759  188.3298   28.2867  189.3816   27.6035  189.8900   29.2185  189.9187   29.2000   -0.0000   -0.0000
  2.590  192.9916   28.5496  192.0348   29.5290  192.0852   29.5409  193.1898   28.8492  193.7055   30.5275  193.7366   30.5077   -0.0000   -0.0000
  2.600  196.9602   29.8622  195.9595   30.8699  196.0111   30.8828  197.1723   30.1832  197.6949   31.9289  197.7286   31.9078   -0.0000   -0.0000
  2.610  201.1139   31.2696  200.0661   32.3070  200.1189   32.3211  201.3408   31.6141  201.8701   33.4319  201.9066   33.4092   -0.0000   -0.0000
  2.620  205.4657   32.7815  204.3671   33.8497  204.4211   33.8650  205.7083   33.1516  206.2437   35.0463  206.2834   35.0221   -0.0000   -0.0000
  2.630  210.0294   34.4083  208.8762   35.5086  208.9315   35.5254  210.2890   34.8064  210.8298   36.7835  210.8730   36.7578   -0.0000   -0.0000
  2.640  214.8205   36.1620  213.6083   37.2959  213.6649   37.3141  215.0981   36.5908  215.6437   38.6564  215.6906   38.6289   -0.0000   -0.0000
  2.650  219.8557   38.0562  218.5798   39.2251  218.6377   39.2449  220.1526   38.5188  220.7021   40.6793  220.7531   40.6501   -0.0000   -0.0000
  2.660  225.1535   40.1062  223.8084   41.3115  223.8678   41.3332  225.4711   40.6061  226.0231   42.8689  226.0786   42.8378   -0.0000   -0.0000
  2.670  230.7341   42.3298  229.3139   43.5730  229.3748   43.5966  231.0737   42.8708  231.6268   45.2439  231.6874   45.2108   -0.0000   -0.0000
  2.680  236.6196   44.7469  235.1177   46.0295  235.1802   46.0552  236.9829   45.3334  237.5351   47.8257  237.6013   47.7906   -0.0000   -0.0000
  2.690  242.8347   47.3807  241.2435   48.7041  241.3077   48.7322  243.2231   48.0177  243.7723   50.6391  243.8446   50.6019   -0.0000   -0.0000
  2.700  249.4061   50.2577  247.7174   51.6233  247.7833   51.6540  249.8215   50.9510  250.3647   53.7125  250.4439   53.6730   -0.0000   -0.0000
  2.710  256.3638   53.4087  254.5681   54.8179  254.6359   54.8515  256.8079   54.1649  257.3416   57.0788  257.4284   57.0370   -0.0000   -0.0000
  2.720  263.7406   56.8695  261.8272   58.3234  261.8969   58.3602  264.2151   57.6959  264.7352   60.7761  264.8305   60.7320   -0.0000   -0.0000
  2.730  271.5729   60.6817  269.5297   62.1813  269.6014   62.2216  272.0797   61.5871  272.5806   64.8490  272.6855   64.8025   -0.0000   -0.0000
  2.740  279.9008   64.8942  277.7142   66.4400  277.7879   66.4842  280.4418   65.8886  280.9169   69.3497  281.0326   69.3007   -0.0000   -0.0000
  2.750  288.7687   69.5644  286.4230   71.1566  286.4989   71.2052  289.3456   70.6594  289.7868   74.3394  289.9146   74.2880   -0.0001   -0.0000
  2.760  298.2258   74.7604  295.7032   76.3983  295.7812   76.4519  298.8401   75.9695  299.2372   79.8906  299.3788   79.8370   -0.0004   -0.0000
  2.770  308.3262   80.5629  305.6061   82.2452  305.6863   82.3042  308.9792   81.9020  309.3193   86.0896  309.4765   86.0339   -0.0014   -0.0000
  2.780  319.1292   87.0686  316.1881   88.7924  316.2705   88.8576  319.8216   88.5563  320.0888   93.0391  320.2638   92.9817   -0.0039   -0.0000
  2.790  330.7000   94.3934  327.5105   96.1542  327.5952   96.2265  331.4316   96.0518  331.6057  100.8625  331.8011  100.8040   -0.0110   -0.0000
  2.800  343.1091  102.6778  339.6397  104.4686  339.7265  104.5489  343.8785  104.5329  343.9341  109.7089  344.1528  109.6500   -0.0293   -0.0000
  2.810  356.4320  112.0922  352.6462  113.9028  352.7350  113.9921  357.2360  114.1751  357.1405  119.7591  357.3861  119.7008   -0.0747   -0.0000
  2.820  370.7482  122.8452  366.6035  124.6609  366.6940  124.7605  371.5806  125.1931  371.2925  131.2336  371.5693  131.1776   -0.1823   -0.0001
  2.830  386.1387  135.1935  381.5855  136.9932  381.6775  137.1047  386.9893  137.8508  386.4551  144.4031  386.7680  144.3517   -0.4259   -0.0003
  2.840  402.6815  149.4547  397.6624  151.2089  397.7552  151.3340  403.5341  152.4747  402.6845  159.6013  403.0393  159.5577   -0.9527   -0.0006
  2.850  420.4445  166.0242  414.8930  167.6915  414.9858  167.8323  421.2741  169.4712  420.0185  177.2417  420.4223  177.2105   -2.0406   -0.0014
  2.860  439.4727  185.3964  433.3124  186.9193  433.4039  187.0781  440.2414  189.3474  438.4609  197.8384  438.9218  197.8261   -4.1840   -0.0029
  2.870  459.7677  208.1925  452.9116  209.4907  453.0001  209.6702  460.4186  212.7392  457.9562  222.0321  458.4836  222.0477   -8.2102   -0.0059
  2.880  481.2537  235.1939  473.6052  236.1559  473.6882  236.3593  481.7021  240.4446  478.3494  250.6202  478.9540  250.6769  -15.4123   -0.0116
  2.890  503.7225  267.3829  495.1783  267.8541  495.2522  268.0849  503.8431  273.4626  499.3225  284.5917  500.0159  284.7078  -27.6639   -0.0218
  2.900  526.7452  305.9867  517.2030  305.7537  517.2630  306.0155  526.3538  313.0333  520.2959  325.1574  521.0897  325.3590  -47.4499   -0.0392
  2.910  549.5324  352.5160  538.9059  351.2861  538.9452  351.5826  548.3597  360.6697  540.2766  373.7657  541.1802  374.0894  -77.7211   -0.0678
  2.920  570.7160  408.7740  558.9642  406.1521  558.9738  406.4866  568.3747  418.1515  557.6325  432.0708  558.6493  432.5672 -121.4834   -0.1124
  2.930  588.0240  476.7862  575.2029  472.2530  575.1708  472.6273  583.9710  487.4278  569.7764  501.7933  570.8958  502.5305 -181.0717   -0.1789
  2.940  597.8296  558.5471  584.1767  551.4521  584.0877  551.8658  591.3379  570.3203  572.7695  584.3660  573.9538  585.4306 -257.1718   -0.2734
  2.950  594.6166  655.4045  580.6761  645.0017  580.5115  645.4501  584.7937  667.8457  560.9447  680.1985  562.1095  681.6893 -347.7998   -0.4013
  2.960  570.5804  766.8228  557.3577  752.4004  557.0958  752.8724  556.5054  778.9280  526.8423  787.3918  527.8320  789.3966 -447.5900   -0.5657
  2.970  515.9500  888.3335  505.0316  869.5010  504.6481  869.9759  497.0250  898.3870  462.0567  899.9319  462.6302  902.4774 -547.7951   -0.7671
  2.980  421.1034 1009.0192  414.5834  986.1803  414.0548  986.6219  397.6399 1014.6945  359.7854 1006.0454  359.6420 1009.0198 -637.3060   -1.0013
  2.990  281.4992 1110.2835  281.4712 1085.1450  280.7859 1085.4950  255.2686 1109.3070  219.2790 1088.4586  218.1613 1091.5487 -704.8042   -1.2603
  3.000  104.3669 1169.2508  111.8902 1144.8954  111.0711 1145.0772   78.4869 1160.5612   50.3552 1128.6916   48.2109 1131.4198 -742.0558   -1.5330
  3.010  -88.2243 1168.6144  -74.1629 1148.5676  -75.0392 1148.5188 -110.4589 1153.1891 -126.2549 1115.1837 -129.1711 1117.0916 -748.6007   -1.8081
  3.020 -266.2557 1107.4713 -248.6839 1094.0033 -249.5091 1093.7222 -282.8838 1087.8814 -285.7496 1050.2143 -288.9649 1051.0822 -738.4557   -2.0795
  3.030 -405.8544 1002.6359 -388.3350  995.6875 -389.0285  995.2394 -416.8070  981.6074 -409.7257  949.2003 -412.7758  949.1128 -747.8449   -2.3543
  3.040 -498.5567  878.5988 -483.5216  876.2430 -484.0688  875.7151 -504.9785  857.8265 -492.1676  832.6087 -494.7667  831.8363 -834.9207   -2.6611
  3.050 -549.7216  756.1044 -537.8132  755.8425 -538.2534  755.2904 -552.8557  735.9909 -537.7349  717.5777 -539.7977  716.4150 *********   -3.0472
  3.060 -571.6599  646.9855 -561.9564  646.8809 -562.3432  646.3013 -571.9421  627.1275 -556.4571  614.2253 -558.0294  612.8930 *********   -3.5513
  3.070 -577.5679  553.6257 -568.2748  553.2064 -568.6165  552.5372 -574.2199  533.9425 -559.1961  525.4666 -560.3685  524.0810 *********   -4.1593
  3.080 -575.2040  470.6500 -565.2914  471.2812 -565.4889  470.4823 -567.3214  452.7862 -553.4141  448.1967 -554.2377  446.8059 *********   -4.7852
  3.090 -562.9872  394.1356 -553.5902  397.0584 -553.5409  396.2433 -551.8699  380.4512 -540.0110  378.9456 -540.5089  377.6268 *********   -5.3135
  3.100 -540.2066  328.0058 -532.7162  332.5700 -532.4796  331.8794 -528.4540  318.8296 -518.9914  319.1070 -519.2455  317.9360 -978.1112   -5.6730
  3.110 -512.0060  274.7120 -506.5981  279.7590 -506.2833  279.2182 -501.1538  268.8696 -493.7532  269.9503 -493.8560  268.9373 -533.9443   -5.8692
  3.120 -482.8662  232.4685 -479.1254  237.3159 -478.7949  236.8934 -473.3389  228.7844 -467.5363  230.1701 -467.5461  229.2944 -234.9447   -5.9555
  3.130 -454.8084  198.6342 -452.2781  203.0079 -451.9567  202.6691 -446.5671  196.3202 -441.9873  197.7786 -441.9369  197.0174  -84.6947   -5.9867
  3.140 -428.5173  171.1093 -426.8422  174.9389 -426.5373  174.6584 -421.3990  169.6807 -417.7661  171.1006 -417.6751  170.4357  -25.9486   -5.9962
  3.150 -404.1421  148.3925 -403.0687  151.6940 -402.7808  151.4541 -397.9752  147.5503 -395.0862  148.8774 -394.9674  148.2941   -7.2723   -5.9989
  3.160 -381.6296  129.4098 -380.9806  132.2311 -380.7079  132.0198 -376.2644  128.9643 -373.9673  130.1728 -373.8296  129.6597   -2.1183   -5.9997
  3.170 -360.8520  113.3747 -360.5035  115.7725 -360.2432  115.5815 -356.1651  113.2014 -354.3438  114.2810 -354.1935  113.8289   -0.8219   -6.0000
  3.180 -341.6574   99.6975 -341.5222  101.7274 -341.2713  101.5506 -337.5487   99.7123 -336.1129  100.6614 -335.9546  100.2626   -0.7492   -6.0002
  3.190 -323.8906   87.9268 -323.9070   89.6397 -323.6625   89.4726 -320.2792   88.0714 -319.1578   88.8928 -318.9949   88.5412   -1.5977   -6.0008
  3.200 -307.4021   77.7112 -307.5262   79.1522 -307.2851   78.9913 -304.2225   77.9441 -303.3585   78.6435 -303.1938   78.3339   -4.1022   -6.0023
  3.210 -292.0515   68.7732 -292.2517   69.9815 -292.0110   69.8241 -289.2501   69.0644 -288.5974   69.6486 -288.4329   69.3768  -10.0591   -6.0060
  3.220 -277.7075   60.8905 -277.9615   61.9004 -277.7182   61.7443 -275.2407   61.2181 -274.7610   61.6945 -274.5988   61.4570  -22.7136   -6.0144
  3.230 -264.2473   53.8832 -264.5396   54.7245 -264.2903   54.5677 -262.0792   54.2308 -261.7405   54.6070 -261.5826   54.4009  -46.9808   -6.0316
  3.240 -251.5546   47.6033 -251.8746   48.3023 -251.6155   48.1432 -249.6558   47.9590 -249.4304   48.2429 -249.2788   48.0655  -88.9397   -6.0643
  3.250 -239.5159   41.9283 -239.8574   42.5084 -239.5841   42.3455 -237.8630   42.2835 -237.7263   42.4836 -237.5834   42.3322 -154.0795   -6.1209
  3.260 -228.0161   36.7557 -228.3768   37.2383 -228.0837   37.0704 -226.5912   37.1047 -226.5208   37.2305 -226.3893   37.1021 -244.2737   -6.2107
  3.270 -216.9318   32.0014 -217.3134   32.4065 -216.9932   32.2327 -215.7233   32.3407 -215.6983   32.4042 -215.5811   32.2946 -354.4663   -6.3410
  3.280 -206.1219   27.6038 -206.5310   27.9500 -206.1739   27.7704 -205.1259   27.9304 -205.1275   27.9472 -205.0266   27.8505 -471.0840   -6.5141
  3.290 -195.4199   23.5362 -195.8700   23.8410 -195.4624   23.6580 -194.6423   23.8441 -194.6549   23.8346 -194.5699   23.7434 -574.3397   -6.7252
  3.300 -184.6366   19.8299 -185.1498   20.1071 -184.6741   19.9282 -184.0915   20.1026 -184.1049   20.0918 -184.0314   19.9994 -645.1940   -6.9623
  3.310 -173.5776   16.5907 -174.1877   16.8473 -173.6225   16.6886 -173.2802   16.7952 -173.2895   16.8120 -173.2199   16.7158 -675.1190   -7.2104
  3.320 -162.0549   14.0017 -162.8097   14.2321 -162.1322   14.1219 -162.0099   14.0893 -162.0135   14.1694 -161.9425   14.0728 -674.2138   -7.4581
  3.330 -149.8696   12.3507 -150.8342   12.5254 -150.0230   12.5104 -150.0642   12.2649 -150.0676   12.4631 -149.9971   12.3709 -672.1975   -7.7052
  3.340 -136.8249   12.1412 -138.0803   12.1832 -137.1238   12.3388 -137.2277   11.8255 -137.2664   12.2306 -137.2049   12.1403 -708.5103   -7.9655
  3.350 -122.8890   14.2639 -124.5075   14.0076 -123.4298   14.4506 -123.4493   13.6682 -123.6456   14.4006 -123.5989   14.2947 -812.8364   -8.2642
  3.360 -108.6521   20.0799 -110.6092   19.2331 -109.5280   20.1122 -109.3021   19.1715 -109.9534   20.3062 -109.9048   20.1539 -984.8228   -8.6262
  3.370  -96.1099   30.9639  -98.1101   29.1743  -97.3085   30.5776  -96.7813   29.7354  -98.3723   31.0569  -98.2624   30.8453 *********   -9.0623
  3.380  -88.9929   46.6103  -90.3790   43.7886  -90.2464   45.5306  -89.6316   45.0561  -92.4421   45.7762  -92.2036   45.5667 *********   -9.5621
  3.390  -90.5681   62.9876  -90.7041   59.6743  -91.3777   61.2269  -91.0910   61.0888  -94.4958   60.2760  -94.1489   60.1770 *********  -10.0971
  3.400  -99.5120   74.1103  -98.4224   71.1876  -99.5406   72.1105  -99.7917   71.9140 -102.5769   69.5767 -102.2159   69.6291 *********  -10.6358
  3.410 -110.3828   77.5223 -108.6803   75.4633 -109.7607   75.7793 -110.3588   75.1647 -111.9210   72.1637 -111.6164   72.3383 *********  -11.1594
  3.420 -118.8756   75.3676 -117.1290   74.0830 -117.9562   74.0583 -118.5968   72.9626 -119.1085   70.0347 -118.8924   70.2897 *********  -11.6682
  3.430 -123.9103   70.8183 -122.3697   70.0188 -122.9512   69.8696 -123.4625   68.3926 -123.3082   65.8309 -123.1939   66.1282 *********  -12.1761
  3.440 -126.1739   65.9417 -124.8708   65.3884 -125.2815   65.2192 -125.6122   63.4471 -125.0809   61.2851 -125.0714   61.5888 *********  -12.6975
  3.450 -126.7688   61.6710 -125.6519   61.2175 -125.9556   61.0645 -126.0767   59.0184 -125.3311   57.2084 -125.4193   57.4836 *********  -13.2722
  3.460 -126.7214   58.1578 -125.6944   57.7026 -125.9522   57.5990 -125.7777   55.2733 -124.8966   53.7642 -125.0656   53.9810 *********  -14.4874
  3.470 -126.7142   54.9950 -125.6425   54.6321 -125.9271   54.4699 -125.3196   51.9435 -124.3409   50.7284 -124.5571   50.8518 *********  -15.2924
  3.480 -126.8061   51.5132 -125.7636   51.2882 -125.9717   51.0671 -124.8447   48.4976 -123.8391   47.5780 -124.0485   47.6128 *********  -15.7648
  3.490 -126.4736   47.4405 -125.4951   47.3570 -125.6181   47.1227 -123.9835   44.7175 -123.0264   44.0686 -123.1980   44.0431 *********  -16.1604
  3.500 -125.2731   43.0996 -124.4031   43.1363 -124.4541   42.9203 -122.4365   40.8358 -121.5876   40.4014 -121.7139   40.3482 -841.6005  -16.4697
  3.510 -123.2053   38.9813 -122.4658   39.0938 -122.4681   38.9113 -120.2273   37.2047 -119.5102   36.9172 -119.6001   36.8584 -609.5147  -16.6937
  3.520 -120.5460   35.3680 -119.9332   35.5142 -119.9072   35.3665 -117.5755   34.0202 -116.9855   33.8242 -117.0508   33.7696 -409.2877  -16.8441
  3.530 -117.5817   32.3125 -117.0789   32.4639 -117.0381   32.3460 -114.7024   31.3092 -114.2225   31.1678 -114.2723   31.1199 -256.3805  -16.9383
  3.540 -114.5083   29.7542 -114.0966   29.8945 -114.0488   29.8002 -111.7584   29.0167 -111.3695   28.9077 -111.4099   28.8662 -152.3747  -16.9943
  3.550 -111.4374   27.6035 -111.0997   27.7249 -111.0488   27.6489 -108.8286   27.0685 -108.5140   26.9793 -108.5484   26.9433  -89.3543  -17.0272
  3.560 -108.4253   25.7783 -108.1477   25.8776 -108.0959   25.8155 -105.9561   25.3975 -105.7023   25.3209 -105.7328   25.2893  -55.6682  -17.0476
  3.570 -105.4975   24.2121 -105.2691   24.2889 -105.2175   24.2375 -103.1604   23.9497 -102.9567   23.8819 -102.9845   23.8539  -40.3825  -17.0625
  3.580 -102.6632   22.8542 -102.4757   22.9095 -102.4247   22.8664 -100.4486   22.6837 -100.2865   22.6226 -100.3124   22.5975  -35.4060  -17.0755
  3.590  -99.9236   21.6666  -99.7706   21.7017  -99.7203   21.6650  -97.8214   21.5680  -97.6942   21.5127  -97.7188   21.4900  -35.7034  -17.0886
  3.600  -97.2757   20.6202  -97.1523   20.6371  -97.1028   20.6054  -95.2765   20.5785  -95.1787   20.5288  -95.2023   20.5081  -38.5591  -17.1028
  3.610  -94.7151   19.6930  -94.6174   19.6936  -94.5686   19.6659  -92.8101   19.6968  -92.7374   19.6529  -92.7602   19.6340  -42.6799  -17.1185
  3.620  -92.2365   18.8683  -92.1617   18.8544  -92.1134   18.8297  -90.4180   18.9086  -90.3667   18.8709  -90.3890   18.8536  -47.5134  -17.1359
  3.630  -89.8347   18.1327  -89.7805   18.1061  -89.7326   18.0838  -88.0957   18.2028  -88.0630   18.1719  -88.0849   18.1559  -52.8428  -17.1553
  3.640  -87.5046   17.4761  -87.4694   17.4384  -87.4218   17.4179  -85.8392   17.5702  -85.8225   17.5470  -85.8441   17.5323  -58.5859  -17.1769
  3.650  -85.2416   16.8901  -85.2243   16.8429  -85.1768   16.8238  -83.6446   17.0039  -83.6419   16.9892  -83.6632   16.9757  -64.7070  -17.2006
  3.660  -83.0414   16.3683  -83.0411   16.3130  -82.9936   16.2949  -81.5083   16.4981  -81.5177   16.4929  -81.5390   16.4805  -71.1831  -17.2268
  3.670  -80.9003   15.9054  -80.9164   15.8433  -80.8688   15.8258  -79.4271   16.0481  -79.4471   16.0536  -79.4684   16.0421  -77.9911  -17.2555
  3.680  -78.8148   15.4972  -78.8471   15.4294  -78.7992   15.4124  -77.3981   15.6502  -77.4276   15.6674  -77.4488   15.6568  -85.1038  -17.2867
  3.690  -76.7819   15.1402  -76.8304   15.0679  -76.7820   15.0510  -75.4188   15.3013  -75.4566   15.3314  -75.4780   15.3217  -92.4882  -17.3207
  3.700  -74.7991   14.8316  -74.8639   14.7558  -74.8149   14.7390  -73.4871   14.9989  -73.5323   15.0431  -73.5538   15.0342 -100.1052  -17.3575
  3.710  -72.8641   14.5693  -72.9456   14.4908  -72.8959   14.4738  -71.6010   14.7408  -71.6530   14.8006  -71.6747   14.7924 -107.9096  -17.3972
  3.720  -70.9752   14.3513  -71.0739   14.2710  -71.0233   14.2537  -69.7592   14.5254  -69.8174   14.6021  -69.8394   14.5946 -115.8502  -17.4398
  3.730  -69.1308   14.1761  -69.2475   14.0947  -69.1959   14.0769  -67.9605   14.3510  -68.0244   14.4462  -68.0467   14.4393 -123.8703  -17.4853
  3.740  -67.3300   14.0422  -67.4655   13.9604  -67.4126   13.9420  -66.2040   14.2164  -66.2734   14.3317  -66.2960   14.3254 -131.9081  -17.5337
  3.750  -65.5719   13.9485  -65.7272   13.8668  -65.6730   13.8476  -64.4892   14.1203  -64.5641   14.2573  -64.5869   14.2515 -139.8978  -17.5852
  3.760  -63.8561   13.8936  -64.0324   13.8125  -63.9766   13.7925  -62.8160   14.0613  -62.8962   14.2218  -62.9194   14.2164 -147.7699  -17.6395
  3.770  -62.1825   13.8764  -62.3812   13.7962  -62.3236   13.7752  -61.1842   14.0382  -61.2700   14.2240  -61.2935   14.2190 -155.4527  -17.6966
  3.780  -60.5512   13.8955  -60.7737   13.8163  -60.7142   13.7944  -59.5942   14.0495  -59.6859   14.2624  -59.7097   14.2577 -162.8734  -17.7564
  3.790  -58.9625   13.9492  -59.2105   13.8712  -59.1488   13.8482  -58.0464   14.0933  -58.1443   14.3354  -58.1685   14.3310 -169.9592  -17.8189
  3.800  -57.4167   14.0358  -57.6920   13.9589  -57.6279   13.9348  -56.5411   14.1678  -56.6460   14.4411  -56.6705   14.4369 -176.6388  -17.8838
  3.810  -55.9142   14.1530  -56.2188   14.0770  -56.1520   14.0518  -55.0789   14.2705  -55.1915   14.5772  -55.2163   14.5732 -182.8437  -17.9510
  3.820  -54.4555   14.2984  -54.7914   14.2229  -54.7217   14.1965  -53.6600   14.3988  -53.7813   14.7412  -53.8063   14.7372 -188.5100  -18.0203
  3.830  -53.0405   14.4692  -53.4102   14.3937  -53.3372   14.3662  -52.2846   14.5498  -52.4156   14.9300  -52.4409   14.9261 -193.5799  -18.0914
  3.840  -51.6692   14.6624  -52.0750   14.5859  -51.9984   14.5573  -50.9524   14.7200  -51.0944   15.1405  -51.1199   15.1367 -198.0033  -18.1642
  3.850  -50.3409   14.8744  -50.7853   14.7961  -50.7048   14.7664  -49.6628   14.9060  -49.8172   15.3692  -49.8428   15.3653 -201.7393  -18.2383
  3.860  -49.0545   15.1018  -49.5403   15.0204  -49.4555   14.9897  -48.4144   15.1040  -48.5828   15.6124  -48.6085   15.6085 -204.7582  -18.3136
  3.870  -47.8082   15.3411  -48.3382   15.2549  -48.2487   15.2235  -47.2054   15.3102  -47.3895   15.8665  -47.4152   15.8626 -207.0428  -18.3897
  3.880  -46.5995   15.5888  -47.1767   15.4961  -47.0822   15.4640  -46.0332   15.5211  -46.2348   16.1281  -46.2606   16.1241 -208.5906  -18.4663
  3.890  -45.4253   15.8417  -46.0528   15.7402  -45.9530   15.7077  -44.8945   15.7331  -45.1157   16.3937  -45.1414   16.3897 -209.4154  -18.5433
  3.900  -44.2819   16.0971  -44.9630   15.9843  -44.8574   15.9517  -43.7855   15.9433  -44.0284   16.6608  -44.0540   16.6567 -209.5494  -18.6203
  3.910  -43.1649   16.3529  -43.9030   16.2257  -43.7913   16.1933  -42.7015   16.1493  -42.9686   16.9271  -42.9941   16.9229 -209.0463  -18.6971
  3.920  -42.0696   16.6075  -42.8682   16.4626  -42.7499   16.4306  -41.6376   16.3495  -41.9317   17.1911  -41.9569   17.1869 -207.9843  -18.7735
  3.930  -40.9907   16.8603  -41.8534   16.6938  -41.7284   16.6627  -40.5886   16.5426  -40.9125   17.4522  -40.9375   17.4480 -206.4708  -18.8494
  3.940  -39.9230   17.1116  -40.8536   16.9188  -40.7214   16.8890  -39.5488   16.7287  -39.9058   17.7106  -39.9306   17.7064 -204.6482  -18.9246
  3.950  -38.8611   17.3625  -39.8633   17.1380  -39.7237   17.1100  -38.5127   16.9083  -38.9066   17.9673  -38.9311   17.9631 -202.7017  -18.9991
  3.960  -37.7998   17.6150  -38.8774   17.3527  -38.7301   17.3269  -37.4746   17.0828  -37.9096   18.2243  -37.9338   18.2201 -200.8680  -19.0729
  3.970  -36.7342   17.8719  -37.8908   17.5647  -37.7354   17.5416  -36.4292   17.2543  -36.9101   18.4842  -36.9340   18.4800 -199.4464  -19.1462
  3.980  -35.6595   18.1368  -36.8985   17.7765  -36.7349   17.7566  -35.3711   17.4257  -35.9037   18.7504  -35.9272   18.7462 -198.8095  -19.2193
  3.990  -34.5717   18.4141  -35.8961   17.9912  -35.7240   17.9750  -34.2953   17.6004  -34.8863   19.0270  -34.9094   19.0227 -199.4135  -19.2926
  4.000  -33.4671   18.7088  -34.8791   18.2124  -34.6982   18.2005  -33.1972   17.7825  -33.8542   19.3186  -33.8770   19.3142 -201.8057  -19.3667
  4.010  -32.3427   19.0263  -33.8434   18.4442  -33.6534   18.4370  -32.0722   17.9763  -32.8044   19.6303  -32.8269   19.6258 -206.6285  -19.4427
  4.020  -31.1961   19.3727  -32.7849   18.6909  -32.5855   18.6891  -30.9159   18.1869  -31.7344   19.9676  -31.7564   19.9629 -214.6164  -19.5215
  4.030  -30.0257   19.7543  -31.6997   18.9575  -31.4906   18.9617  -29.7242   18.4198  -30.6418   20.3366  -30.6634   20.3315 -226.5865  -19.6048
  4.040  -28.8306   20.1777  -30.5839   19.2495  -30.3646   19.2603  -28.4930   18.6810  -29.5251   20.7433  -29.5463   20.7377 -243.4205  -19.6943
  4.050  -27.6107   20.6492  -29.4333   19.5728  -29.2033   19.5910  -27.2181   18.9770  -28.3831   21.1942  -28.4037   21.1878 -266.0343  -19.7920
  4.060  -26.3665   21.1749  -28.2434   19.9344  -28.0021   19.9606  -25.8954   19.3151  -27.2148   21.6958  -27.2347   21.6882 -295.3325  -19.9006
  4.070  -25.0988   21.7600  -27.0095   20.3422  -26.7563   20.3774  -24.5206   19.7035  -26.0194   22.2545  -26.0382   22.2453 -332.1390  -20.0226
  4.080  -23.8080   22.4085  -25.7265   20.8057  -25.4604   20.8510  -23.0892   20.1512  -24.7953   22.8765  -24.8127   22.8651 -377.0975  -20.1612
  4.090  -22.4929   23.1228  -24.3887   21.3365  -24.1088   21.3932  -21.5964   20.6688  -23.5400   23.5682  -23.5551   23.5540 -430.5412  -20.3194
  4.100  -21.1485   23.9045  -22.9905   21.9489  -22.6954   22.0184  -20.0372   21.2683  -22.2486   24.3366  -22.2602   24.3188 -492.3396  -20.5004
  4.110  -19.7641   24.7563  -21.5263   22.6605  -21.2146   22.7450  -18.4063   21.9638  -20.9122   25.1911  -20.9185   25.1694 -561.7507  -20.7068
  4.120  -18.3218   25.6860  -19.9916   23.4936  -19.6617   23.5956  -16.6982   22.7721  -19.5181   26.1470  -19.5168   26.1215 -637.3156  -20.9410
  4.130  -16.7970   26.7118  -18.3842   24.4757  -18.0341   24.5986  -14.9072   23.7133  -18.0508   27.2295  -18.0389   27.2009 -716.8343  -21.2044
  4.140  -15.1637   27.8682  -16.7054   25.6400  -16.3333   25.7884  -13.0280   24.8114  -16.4965   28.4777  -16.4708   28.4482 -797.4464  -21.4975
  4.150  -13.4017   29.2086  -14.9629   27.0268  -14.5671   27.2065  -11.0557   26.0960  -14.8500   29.9465  -14.8078   29.9197 -875.8080  -21.8193
  4.160  -11.5051   30.8028  -13.1733   28.6822  -12.7526   28.9009   -8.9870   27.6031  -13.1226   31.7049  -13.0618   31.6857 -948.3397  -22.1679
  4.170   -9.4877   32.7326  -11.3655   30.6580  -10.9200   30.9253   -6.8210   29.3771  -11.3479   33.8304  -11.2680   33.8249 *********  -22.5396
  4.180   -7.3846   35.0866   -9.5844   33.0091   -9.1163   33.3366   -4.5612   31.4729   -9.5857   36.4039   -9.4883   36.4188 *********  -22.9299
  4.190   -5.2544   37.9589   -7.8951   35.7898   -7.4093   36.1913   -2.2184   33.9582   -7.9253   39.5037   -7.8140   39.5458 *********  -23.3334
  4.200   -3.1831   41.4492   -6.3853   39.0483   -5.8912   39.5391    0.1846   36.9173   -6.4895   43.1997   -6.3703   43.2752 *********  -23.7441
  4.210   -1.2938   45.6613   -5.1678   42.8189   -4.6803   43.4152    2.6061   40.4534   -5.4401   47.5449   -5.3211   47.6584 *********  -24.1563
  4.220    0.2375   50.6973   -4.3797   47.1135   -3.9208   47.8308    4.9743   44.6922   -4.9839   52.5610   -4.8754   52.7151 *********  -24.5652
  4.230    1.1631   56.6391   -4.1794   51.9115   -3.7797   52.7621    7.1702   49.7817   -5.3771   58.2154   -5.2908   58.4098 *********  -24.9675
  4.240    1.1457   63.5130   -4.7395   57.1496   -4.4393   58.1391    9.0031   55.8875   -6.9191   64.3878   -6.8677   64.6181 *********  -25.3622
  4.250   -0.2443   71.2302   -6.2368   62.7141   -6.0854   63.8359   10.1756   63.1740   -9.9279   70.8249   -9.9235   71.0823 *********  -25.7504
  4.260   -3.4935   79.5076   -8.8405   68.4356   -8.8931   69.6647   10.2423   71.7609  -14.6779   77.0976  -14.7297   77.3677 *********  -26.1355
  4.270   -9.0471   87.7935  -12.7015   74.0845  -13.0122   75.3708    8.5725   81.6347  -21.2909   82.5868  -21.4025   82.8512 *********  -26.5217
  4.280  -17.1410   95.2570  -17.9428   79.3589  -18.5518   80.6236    4.3577   92.4971  -29.5958   86.5514  -29.7631   86.7906 *********  -26.9133
  4.290  -27.6213  100.8986  -24.6321   83.8579  -25.5484   84.9971   -3.2636  103.5603  -39.0325   88.3137  -39.2429   88.5109 *********  -27.3138
  4.300  -39.8520  103.7814  -32.7072   87.0580  -33.8913   87.9581  -14.8683  113.3912  -48.7091   87.5150  -48.9441   87.6607 *********  -27.7245
  4.310  -52.7766  103.2878  -41.8430   88.3579  -43.1995   88.9256  -30.2102  120.0424  -57.6510   84.2859  -57.8910   84.3796 *********  -28.1444
  4.320  -65.1083   99.3163  -51.3456   87.2731  -52.7396   87.4686  -47.7982  121.7015  -65.1107   79.1921  -65.3393   79.2411 *********  -28.5698
  4.330  -75.6179   92.3717  -60.2486   83.7256  -61.5443   83.5791  -65.1397  117.6497  -70.7407   72.9948  -70.9477   73.0109 *********  -28.9951
  4.340  -83.4735   83.4660  -67.6551   78.1813  -68.7557   77.7784  -79.7618  108.7527  -74.5636   66.3999  -74.7452   66.3956 *********  -29.4131
  4.350  -88.4530   73.7919  -73.0782   71.4660  -73.9443   70.9116  -90.2471   96.9673  -76.8274   59.9227  -76.9846   59.9084 *********  -29.8155
  4.360  -90.8733   64.3498  -76.5156   64.4141  -77.1555   63.7998  -96.4846   84.3438  -77.8605   53.8707  -77.9969   53.8540 *********  -30.1939
  4.370  -91.3254   55.7583  -78.2806   57.6288  -78.7288   57.0184  -99.2108   72.3416  -77.9801   48.3893  -78.1003   48.3746 -943.1807  -30.5405
  4.380  -90.4244   48.2770  -78.7883   51.4372  -79.0869   50.8674  -99.4222   61.7061  -77.4521   43.5179  -77.5603   43.5075 -839.4022  -30.8490
  4.390  -88.6773   41.9275  -78.4208   45.9583  -78.6088   45.4459  -98.0140   52.6579  -76.4828   39.2361  -76.5825   39.2308 -724.0241  -31.1151
  4.400  -86.4518   36.6098  -77.4776   41.1896  -77.5867   40.7388  -95.6576   45.1283  -75.2249   35.4946  -75.3187   35.4944 -604.0270  -31.3370
  4.410  -83.9941   32.1797  -76.1747   37.0710  -76.2291   36.6793  -92.8083   38.9269  -73.7885   32.2332  -73.8783   32.2378 -486.6937  -31.5159
  4.420  -81.4602   28.4900  -74.6605   33.5222  -74.6779   33.1841  -89.7551   33.8349  -72.2508   29.3910  -72.3382   29.3999 -378.5172  -31.6550
  4.430  -78.9445   25.4086  -73.0346   30.4622  -73.0275   30.1708  -86.6726   29.6481  -70.6658   26.9111  -70.7516   26.9238 -284.2712  -31.7595
  4.440  -76.5014   22.8234  -71.3621   27.8168  -71.3392   27.5655  -83.6610   26.1917  -69.0702   24.7427  -69.1551   24.7587 -206.5015  -31.8353
  4.450  -74.1598   20.6425  -69.6854   25.5217  -69.6527   25.3043  -80.7743   23.3226  -67.4885   22.8414  -67.5731   22.8603 -145.5424  -31.8888
  4.460  -71.9330   18.7919  -68.0311   23.5223  -67.9927   23.3334  -78.0379   20.9259  -65.9369   21.1690  -66.0215   21.1906  -99.9758  -31.9256
  4.470  -69.8247   17.2118  -66.4157   21.7732  -66.3743   21.6082  -75.4603   18.9108  -64.4255   19.6932  -64.5104   19.7172  -67.3233  -31.9503
  4.480  -67.8333   15.8547  -64.8490   20.2363  -64.8064   20.0913  -73.0406   17.2051  -62.9603   18.3864  -63.0458   18.4125  -44.7377  -31.9668
  4.490  -65.9539   14.6823  -63.3360   18.8803  -63.2933   18.7519  -70.7722   15.7519  -61.5445   17.2254  -61.6306   17.2535  -29.5299  -31.9776
  4.500  -64.1801   13.6638  -61.8790   17.6790  -61.8368   17.5645  -68.6461   14.5062  -60.1791   16.1904  -60.2660   16.2204  -19.4652  -31.9848
  4.510  -62.5047   12.7743  -60.4781   16.6105  -60.4369   16.5076  -66.6520   13.4320  -58.8640   15.2648  -58.9518   15.2966  -12.8546  -31.9895
  4.520  -60.9205   11.9937  -59.1323   15.6566  -59.0922   15.5634  -64.7794   12.5003  -57.5982   14.4344  -57.6870   14.4679   -8.5105  -31.9926
  4.530  -59.4205   11.3054  -57.8399   14.8022  -57.8009   14.7170  -63.0181   11.6882  -56.3800   13.6872  -56.4699   13.7223   -5.6406  -31.9947
  4.540  -57.9979   10.6960  -56.5986   14.0341  -56.5607   13.9557  -61.3586   10.9766  -55.2074   13.0130  -55.2986   13.0496   -3.7327  -31.9961
  4.550  -56.6464   10.1542  -55.4060   13.3417  -55.3689   13.2689  -59.7919   10.3504  -54.0784   12.4028  -54.1709   12.4411   -2.4591  -31.9970
  4.560  -55.3604    9.6707  -54.2593   12.7156  -54.2230   12.6475  -58.3100    9.7968  -52.9906   11.8494  -53.0845   11.8893   -1.6089  -31.9975
  4.570  -54.1345    9.2378  -53.1561   12.1480  -53.1203   12.0837  -56.9054    9.3057  -51.9418   11.3462  -52.0372   11.3876   -1.0438  -31.9979
  4.580  -52.9638    8.8491  -52.0937   11.6321  -52.0583   11.5710  -55.5715    8.8683  -50.9299   10.8876  -51.0269   10.9307   -0.6711  -31.9982
  4.590  -51.8440    8.4990  -51.0697   11.1622  -51.0344   11.1037  -54.3022    8.4776  -49.9526   10.4689  -50.0513   10.5136   -0.4277  -31.9983
  4.600  -50.7711    8.1829  -50.0817   10.7332  -50.0464   10.6768  -53.0920    8.1275  -49.0080   10.0858  -49.1084   10.1321   -0.2705  -31.9984
  4.610  -49.7413    7.8969  -49.1276   10.3409  -49.0920   10.2861  -51.9361    7.8130  -48.0940    9.7348  -48.1963    9.7828   -0.1703  -31.9985
  4.620  -48.7515    7.6376  -48.2051    9.9814  -48.1690    9.9280  -50.8299    7.5298  -47.2088    9.4127  -47.3131    9.4623   -0.1072  -31.9985
  4.630  -47.7986    7.4022  -47.3123    9.6516  -47.2756    9.5992  -49.7695    7.2743  -46.3507    9.1166  -46.4571    9.1680   -0.0683  -31.9986
  4.640  -46.8799    7.1881  -46.4474    9.3485  -46.4098    9.2969  -48.7513    7.0433  -45.5180    8.8443  -45.6266    8.8974   -0.0450  -31.9986
  4.650  -45.9928    6.9932  -45.6087    9.0698  -45.5700    9.0187  -47.7719    6.8343  -44.7092    8.5936  -44.8200    8.6485   -0.0318  -31.9986
  4.660  -45.1350    6.8158  -44.7944    8.8132  -44.7545    8.7624  -46.8285    6.6450  -43.9229    8.3625  -44.0361    8.4193   -0.0256  -31.9986
  4.670  -44.3046    6.6541  -44.0032    8.5769  -43.9618    8.5262  -45.9183    6.4734  -43.1575    8.1495  -43.2733    8.2081   -0.0244  -31.9986
  4.680  -43.4996    6.5069  -43.2335    8.3590  -43.1905    8.3083  -45.0389    6.3178  -42.4120    7.9531  -42.5304    8.0137   -0.0275  -31.9986
  4.690  -42.7182    6.3728  -42.4841    8.1582  -42.4394    8.1073  -44.1879    6.1768  -41.6851    7.7720  -41.8063    7.8345   -0.0347  -31.9986
  4.700  -41.9588    6.2509  -41.7537    7.9731  -41.7071    7.9218  -43.3634    6.0491  -40.9757    7.6051  -41.0998    7.6696   -0.0465  -31.9987
  4.710  -41.2199    6.1401  -41.0411    7.8025  -40.9924    7.7509  -42.5635    5.9336  -40.2827    7.4513  -40.4099    7.5179   -0.0640  -31.9987
  4.720  -40.5003    6.0398  -40.3454    7.6455  -40.2945    7.5933  -41.7865    5.8293  -39.6051    7.3097  -39.7356    7.3785   -0.0888  -31.9987
  4.730  -39.7985    5.9491  -39.6655    7.5011  -39.6121    7.4483  -41.0308    5.7354  -38.9421    7.1797  -39.0759    7.2506   -0.1233  -31.9988
  4.740  -39.1134    5.8676  -39.0004    7.3685  -38.9444    7.3149  -40.2949    5.6511  -38.2927    7.0604  -38.4301    7.1336   -0.1706  -31.9988
  4.750  -38.4440    5.7945  -38.3493    7.2470  -38.2905    7.1926  -39.5775    5.5759  -37.6561    6.9512  -37.7973    7.0268   -0.2348  -31.9989
  4.760  -37.7893    5.7295  -37.7113    7.1359  -37.6496    7.0806  -38.8773    5.5092  -37.0316    6.8516  -37.1767    6.9296   -0.3214  -31.9990
  4.770  -37.1482    5.6722  -37.0856    7.0347  -37.0208    6.9785  -38.1932    5.4505  -36.4184    6.7612  -36.5676    6.8416   -0.4373  -31.9992
  4.780  -36.5199    5.6222  -36.4715    6.9428  -36.4033    6.8857  -37.5242    5.3994  -35.8158    6.6794  -35.9693    6.7624   -0.5913  -31.9994
  4.790  -35.9036    5.5792  -35.8682    6.8600  -35.7966    6.8018  -36.8691    5.3555  -35.2231    6.6059  -35.3812    6.6915   -0.7946  -31.9997
  4.800  -35.2984    5.5430  -35.2752    6.7857  -35.1999    6.7264  -36.2271    5.3186  -34.6398    6.5404  -34.8027    6.6287   -1.0611  -32.0001
  4.810  -34.7038    5.5133  -34.6918    6.7197  -34.6126    6.6592  -35.5972    5.2884  -34.0652    6.4825  -34.2331    6.5737   -1.4081  -32.0006
  4.820  -34.1190    5.4900  -34.1174    6.6617  -34.0341    6.5999  -34.9788    5.2647  -33.4987    6.4322  -33.6720    6.5263   -1.8570  -32.0013
  4.830  -33.5433    5.4729  -33.5514    6.6114  -33.4638    6.5483  -34.3709    5.2472  -32.9399    6.3891  -33.1188    6.4862   -2.4337  -32.0022
  4.840  -32.9762    5.4619  -32.9933    6.5686  -32.9012    6.5043  -33.7729    5.2360  -32.3882    6.3532  -32.5730    6.4534   -3.1695  -32.0033
  4.850  -32.4171    5.4570  -32.4426    6.5333  -32.3457    6.4675  -33.1841    5.2309  -31.8431    6.3242  -32.0341    6.4277   -4.1021  -32.0048
  4.860  -31.8654    5.4581  -31.8988    6.5051  -31.7968    6.4380  -32.6039    5.2317  -31.3041    6.3021  -31.5017    6.4089   -5.2761  -32.0068
  4.870  -31.3206    5.4652  -31.3614    6.4842  -31.2542    6.4155  -32.0315    5.2386  -30.7708    6.2869  -30.9753    6.3971   -6.7437  -32.0093
  4.880  -30.7823    5.4784  -30.8300    6.4704  -30.7172    6.4002  -31.4665    5.2515  -30.2428    6.2784  -30.4546    6.3923   -8.5659  -32.0124
  4.890  -30.2500    5.4975  -30.3043    6.4637  -30.1856    6.3919  -30.9083    5.2704  -29.7196    6.2768  -29.9391    6.3943  -10.8128  -32.0164
  4.900  -29.7231    5.5228  -29.7837    6.4640  -29.6588    6.3906  -30.3563    5.2953  -29.2007    6.2820  -29.4285    6.4034  -13.5644  -32.0214
  4.910  -29.2015    5.5544  -29.2679    6.4715  -29.1364    6.3964  -29.8101    5.3264  -28.6859    6.2940  -28.9224    6.4194  -16.9107  -32.0276
  4.920  -28.6845    5.5922  -28.7566    6.4862  -28.6181    6.4093  -29.2692    5.3638  -28.1748    6.3131  -28.4205    6.4427  -20.9519  -32.0353
  4.930  -28.1719    5.6365  -28.2493    6.5082  -28.1036    6.4295  -28.7331    5.4075  -27.6669    6.3392  -27.9225    6.4731  -25.7983  -32.0448
  4.940  -27.6634    5.6875  -27.7459    6.5375  -27.5924    6.4571  -28.2015    5.4578  -27.1620    6.3726  -27.4280    6.5110  -31.5696  -32.0564
  4.950  -27.1585    5.7454  -27.2459    6.5745  -27.0842    6.4922  -27.6738    5.5149  -26.6596    6.4134  -26.9367    6.5564  -38.3939  -32.0705
  4.960  -26.6571    5.8103  -26.7491    6.6192  -26.5788    6.5349  -27.1497    5.5790  -26.1595    6.4618  -26.4485    6.6097  -46.4062  -32.0875
  4.970  -26.1588    5.8825  -26.2553    6.6719  -26.0757    6.5856  -26.6288    5.6502  -25.6614    6.5181  -25.9631    6.6710  -55.7464  -32.1080
  4.980  -25.6633    5.9623  -25.7642    6.7327  -25.5748    6.6445  -26.1108    5.7290  -25.1650    6.5825  -25.4802    6.7407  -66.5568  -32.1325
  4.990  -25.1705    6.0500  -25.2756    6.8020  -25.0757    6.7117  -25.5953    5.8157  -24.6700    6.6553  -24.9997    6.8190  -78.9788  -32.1615
  5.000  -24.6801    6.1460  -24.7892    6.8802  -24.5782    6.7877  -25.0820    5.9105  -24.1761    6.7369  -24.5214    6.9062  -93.1496  -32.1957
  5.010  -24.1920    6.2505  -24.3051    6.9674  -24.0822    6.8728  -24.5708    6.0138  -23.6830    6.8276  -24.0451    7.0029 -109.1985  -32.2359
  5.020  -23.7060    6.3640  -23.8229    7.0640  -23.5873    6.9672  -24.0612    6.1261  -23.1907    6.9278  -23.5708    7.1092 -127.2423  -32.2826
  5.030  -23.2221    6.4868  -23.3427    7.1705  -23.0935    7.0714  -23.5530    6.2477  -22.6988    7.0381  -23.0984    7.2258 -147.3817  -32.3368
  5.040  -22.7402    6.6194  -22.8644    7.2872  -22.6005    7.1859  -23.0461    6.3792  -22.2071    7.1587  -22.6279    7.3531 -169.6976  -32.3991
  5.050  -22.2603    6.7622  -22.3880    7.4146  -22.1083    7.3110  -22.5403    6.5211  -21.7156    7.2903  -22.1594    7.4915 -194.2476  -32.4705
  5.060  -21.7824    6.9156  -21.9134    7.5530  -21.6168    7.4471  -22.0353    6.6739  -21.2241    7.4335  -21.6928    7.6416 -221.0640  -32.5518
  5.070  -21.3065    7.0800  -21.4410    7.7030  -21.1259    7.5948  -21.5312    6.8380  -20.7324    7.5886  -21.2284    7.8039 -250.1535  -32.6437
  5.080  -20.8328    7.2560  -20.9706    7.8649  -20.6356    7.7545  -21.0277    7.0142  -20.2405    7.7565  -20.7663    7.9791 -281.4975  -32.7471
  5.090  -20.3615    7.4437  -20.5026    8.0392  -20.1458    7.9267  -20.5249    7.2030  -19.7483    7.9376  -20.3069    8.1676 -315.0560  -32.8629
  5.100  -19.8927    7.6438  -20.0372    8.2263  -19.6566    8.1118  -20.0226    7.4050  -19.2559    8.1327  -19.8504    8.3700 -350.7724  -32.9918
  5.110  -19.4267    7.8564  -19.5746    8.4265  -19.1680    8.3103  -19.5209    7.6209  -18.7630    8.3424  -19.3974    8.5868 -388.5807  -33.1346
  5.120  -18.9638    8.0817  -19.1153    8.6401  -18.6799    8.5226  -19.0197    7.8512  -18.2698    8.5675  -18.9484    8.8186 -428.4136  -33.2921
  5.130  -18.5041    8.3200  -18.6594    8.8674  -18.1923    8.7492  -18.5190    8.0967  -17.7761    8.8087  -18.5040    9.0658 -470.2100  -33.4649
  5.140  -18.0478    8.5713  -18.2073    9.1084  -17.7051    8.9903  -18.0186    8.3580  -17.2820    9.0668  -18.0647    9.3287 -513.9210  -33.6537
  5.150  -17.5950    8.8355  -17.7592    9.3632  -17.2180    9.2465  -17.5186    8.6358  -16.7872    9.3425  -17.6314    9.6076 -559.5093  -33.8594
  5.160  -17.1456    9.1124  -17.3153    9.6316  -16.7307    9.5179  -17.0185    8.9307  -16.2916    9.6368  -17.2049    9.9026 -606.9419  -34.0824
  5.170  -16.6992    9.4018  -16.8756    9.9135  -16.2423    9.8051  -16.5181    9.2437  -15.7948    9.9507  -16.7858   10.2136 -656.1712  -34.3235
  5.180  -16.2550    9.7032  -16.4396   10.2084  -15.7521   10.1086  -16.0167    9.5756  -15.2964   10.2855  -16.3747   10.5403 -707.1040  -34.5834
  5.190  -15.8119   10.0165  -16.0066   10.5161  -15.2586   10.4293  -15.5135    9.9278  -14.7955   10.6426  -15.9723   10.8824 -759.5581  -34.8625
  5.200  -15.3678   10.3413  -15.5755   10.8362  -14.7601   10.7685  -15.0073   10.3018  -14.2914   11.0241  -15.5787   11.2390 -813.2108  -35.1614
  5.210  -14.9201   10.6782  -15.1441   11.1689  -14.2544   11.1281  -14.4968   10.6998  -13.7831   11.4324  -15.1937   11.6093 -867.5441  -35.4802
  5.220  -14.4652   11.0282  -14.7100   11.5146  -13.7390   11.5110  -13.9803   11.1250  -13.2695   11.8712  -14.8166   11.9924 -921.7984  -35.8189
  5.230  -13.9986   11.3940  -14.2697   11.8750  -13.2114   11.9217  -13.4562   11.5817  -12.7499   12.3450  -14.4459   12.3875 -974.9443  -36.1772
  5.240  -13.5152   11.7803  -13.8192   12.2532  -12.6692   12.3661  -12.9233   12.0761  -12.2240   12.8599  -14.0790   12.7941 *********  -36.5542
  5.250  -13.0101   12.1947  -13.3544   12.6544  -12.1112   12.8521  -12.3815   12.6160  -11.6931   13.4234  -13.7125   13.2128 *********  -36.9483
  5.260  -12.4800   12.6482  -12.8721   13.0865  -11.5380   13.3895  -11.8328   13.2112  -11.1605   14.0443  -13.3421   13.6454 *********  -37.3576
  5.270  -11.9248   13.1555  -12.3712   13.5599  -10.9529   13.9897  -11.2830   13.8731  -10.6328   14.7323  -12.9628   14.0962 *********  -37.7794
  5.280  -11.3501   13.7330  -11.8541   14.0872  -10.3634   14.6642  -10.7423   14.6126  -10.1205   15.4962  -12.5703   14.5722 *********  -38.2105
  5.290  -10.7685   14.3969  -11.3282   14.6808   -9.7806   15.4236  -10.2260   15.4385   -9.6380   16.3421  -12.1618   15.0832 *********  -38.6471
  5.300  -10.1994   15.1583  -10.8057   15.3510   -9.2195   16.2753   -9.7535   16.3537   -9.2022   17.2715  -11.7377   15.6417 *********  -39.0855
  5.310   -9.6656   16.0208  -10.3015   16.1037   -8.6969   17.2225   -9.3444   17.3545   -8.8300   18.2803  -11.3028   16.2610 *********  -39.5214
  5.320   -9.1891   16.9796   -9.8312   16.9395   -8.2296   18.2639   -9.0154   18.4305   -8.5355   19.3593  -10.8661   16.9539 *********  -39.9510
  5.330   -8.7865   18.0236   -9.4080   17.8554   -7.8325   19.3950   -8.7774   19.5680   -8.3280   20.4974  -10.4411   17.7312 *********  -40.3708
  5.340   -8.4680   19.1405   -9.0421   18.8468   -7.5179   20.6095   -8.6350   20.7539   -8.2122   21.6839  -10.0437   18.6001 *********  -40.7777
  5.350   -8.2388   20.3197   -8.7415   19.9098   -7.2960   21.9013   -8.5895   21.9784   -8.1906   22.9110   -9.6918   19.5644 *********  -41.1694
  5.360   -8.1023   21.5547   -8.5137   21.0423   -7.1765   23.2655   -8.6413   23.2358   -8.2652   24.1742   -9.4038   20.6244 *********  -41.5440
  5.370   -8.0628   22.8418   -8.3674   22.2431   -7.1701   24.6979   -8.7931   24.5234   -8.4406   25.4713   -9.1982   21.7776 -970.8539  -41.9008
  5.380   -8.1276   24.1795   -8.3132   23.5117   -7.2897   26.1947   -9.0508   25.8398   -8.7243   26.8003   -9.0939   23.0187 -921.4037  -42.2394
  5.390   -8.3073   25.5655   -8.3650   24.8464   -7.5514   27.7501   -9.4241   27.1823   -9.1273   28.1580   -9.1096   24.3398 -872.7453  -42.5601
  5.400   -8.6162   26.9957   -8.5392   26.2433   -7.9740   29.3553   -9.9257   28.5454   -9.6636   29.5379   -9.2648   25.7300 -826.0887  -42.8637
  5.410   -9.0711   28.4618   -8.8546   27.6947   -8.5784   30.9962  -10.5703   29.9192  -10.3488   30.9290   -9.5785   27.1745 -782.2741  -43.1512
  5.420   -9.6905   29.9503   -9.3315   29.1879   -9.3863   32.6520  -11.3730   31.2885  -11.1985   32.3148  -10.0696   28.6543 -741.7849  -43.4238
  5.430  -10.4922   31.4416   -9.9901   30.7044  -10.4177   34.2945  -12.3474   32.6324  -12.2271   33.6726  -10.7553   30.1450 -704.7912  -43.6828
  5.440  -11.4924   32.9093  -10.8494   32.2188  -11.6889   35.8871  -13.5040   33.9240  -13.4450   34.9740  -11.6497   31.6168 -671.2122  -43.9295
  5.450  -12.7023   34.3205  -11.9243   33.6988  -13.2085   37.3854  -14.8477   35.1315  -14.8572   36.1848  -12.7619   33.0340 -640.7847  -44.1650
  5.460  -14.1264   35.6363  -13.2237   35.1055  -14.9751   38.7390  -16.3764   36.2189  -16.4605   37.2670  -14.0941   34.3564 -613.1298  -44.3903
  5.470  -15.7598   36.8140  -14.7474   36.3948  -16.9740   39.8943  -18.0786   37.1486  -18.2424   38.1808  -15.6389   35.5405 -587.8103  -44.6063
  5.480  -17.5868   37.8095  -16.4844   37.5198  -19.1755   40.7987  -19.9333   37.8837  -20.1794   38.8873  -17.3780   36.5421 -564.3762  -44.8137
  5.490  -19.5792   38.5807  -18.4106   38.4343  -21.5347   41.4056  -21.9092   38.3914  -22.2375   39.3522  -19.2815   37.3200 -542.3975  -45.0130
  5.500  -21.6976   39.0919  -20.4895   39.0968  -23.9933   41.6802  -23.9661   38.6460  -24.3731   39.5491  -21.3079   37.8399 -521.4868  -45.2047
  5.510  -23.8927   39.3175  -22.6730   39.4752  -26.4834   41.6035  -26.0574   38.6322  -26.5356   39.4629  -23.4070   38.0780 -501.3108  -45.3889
  5.520  -26.1092   39.2446  -24.9045   39.5501  -28.9337   41.1751  -28.1332   38.3461  -28.6712   39.0914  -25.5227   38.0242 -481.5968  -45.5659
  5.530  -28.2897   38.8750  -27.1240   39.3177  -31.2754   40.4140  -30.1438   37.7968  -30.7272   38.4463  -27.5985   37.6829 -462.1329  -45.7357
  5.540  -30.3798   38.2248  -29.2726   38.7894  -33.4484   39.3558  -32.0442   37.0046  -32.6560   37.5517  -29.5814   37.0728 -442.7654  -45.8984
  5.550  -32.3321   37.3227  -31.2977   37.9913  -35.4060   38.0487  -33.7966   35.9994  -34.4186   36.4419  -31.4266   36.2244 -423.3944  -46.0540
  5.560  -34.1093   36.2064  -33.1567   36.9602  -37.1170   36.5484  -35.3727   34.8177  -35.9869   35.1575  -33.1000   35.1766 -403.9675  -46.2025
  5.570  -35.6858   34.9190  -34.8191   35.7400  -38.5664   34.9122  -36.7546   33.4991  -37.3443   33.7425  -34.5794   33.9725 -384.4733  -46.3438
  5.580  -37.0477   33.5053  -36.2674   34.3772  -39.7531   33.1947  -37.9341   32.0834  -38.4853   32.2398  -35.8546   32.6557 -364.9344  -46.4779
  5.590  -38.1920   32.0083  -37.4958   32.9172  -40.6881   31.4445  -38.9119   30.6081  -39.4135   30.6893  -36.9252   31.2672 -345.4001  -46.6048
  5.600  -39.1241   30.4669  -38.5082   31.4016  -41.3901   29.7018  -39.6958   29.1065  -40.1400   29.1257  -37.7992   29.8432 -325.9392  -46.7246
  5.610  -39.8564   28.9146  -39.3163   29.8660  -41.8834   27.9984  -40.2985   27.6069  -40.6809   27.5776  -38.4902   28.4139 -306.6339  -46.8373
  5.620  -40.4054   27.3786  -39.9366   28.3397  -42.1944   26.3576  -40.7361   26.1321  -41.0552   26.0673  -39.0153   27.0030 -287.5731  -46.9430
  5.630  -40.7902   25.8800  -40.3883   26.8451  -42.3499   24.7950  -41.0263   24.6995  -41.2834   24.6113  -39.3934   25.6287 -268.8474  -47.0418
  5.640  -41.0305   24.4344  -40.6919   25.3989  -42.3754   23.3200  -41.1874   23.3219  -41.3857   23.2209  -39.6432   24.3033 -250.5443  -47.1338
  5.650  -41.1461   23.0524  -40.8672   24.0123  -42.2942   21.9369  -41.2372   22.0079  -41.3812   21.9028  -39.7828   23.0350 -232.7450  -47.2194
  5.660  -41.1553   21.7408  -40.9332   22.6921  -42.1269   20.6462  -41.1922   20.7627  -41.2876   20.6606  -39.8287   21.8284 -215.5216  -47.2986
  5.670  -41.0753   20.5028  -40.9067   21.4421  -41.8910   19.4457  -41.0679   19.5888  -41.1205   19.4949  -39.7958   20.6855 -198.9355  -47.3717
  5.680  -40.9210   19.3395  -40.8031   20.2635  -41.6013   18.3314  -40.8778   18.4866  -40.8938   18.4046  -39.6968   19.6063 -183.0367  -47.4389
  5.690  -40.7060   18.2501  -40.6354   19.1555  -41.2702   17.2983  -40.6339   17.4548  -40.6191   17.3872  -39.5429   18.5895 -167.8635  -47.5006
  5.700  -40.4417   17.2324  -40.4150   18.1163  -40.9076   16.3408  -40.3468   16.4913  -40.3065   16.4392  -39.3433   17.6332 -153.4433  -47.5570
  5.710  -40.1381   16.2834  -40.1517   17.1434  -40.5214   15.4534  -40.0253   15.5931  -39.9643   15.5568  -39.1062   16.7348 -139.7934  -47.6084
  5.720  -39.8035   15.3996  -39.8537   16.2336  -40.1182   14.6306  -39.6770   14.7566  -39.5995   14.7359  -38.8382   15.8916 -126.9222  -47.6550
  5.730  -39.4451   14.5772  -39.5281   15.3837  -39.7030   13.8671  -39.3083   13.9783  -39.2178   13.9724  -38.5452   15.1006 -114.8304  -47.6972
  5.740  -39.0686   13.8122  -39.1807   14.5901  -39.2799   13.1582  -38.9247   13.2543  -38.8240   13.2621  -38.2320   14.3589 -103.5127  -47.7353
  5.750  -38.6792   13.1007  -38.8166   13.8494  -38.8523   12.4993  -38.5304   12.5808  -38.4220   12.6012  -37.9030   13.6638  -92.9582  -47.7694
  5.760  -38.2808   12.4389  -38.4400   13.1582  -38.4227   11.8865  -38.1292   11.9542  -38.0149   11.9860  -37.5616   13.0124  -83.1521  -47.8000
  5.770  -37.8768   11.8232  -38.0546   12.5132  -37.9932   11.3159  -37.7241   11.3710  -37.6055   11.4130  -37.2109   12.4021  -74.0761  -47.8272
  5.780  -37.4699   11.2500  -37.6633   11.9112  -37.5655   10.7841  -37.3175   10.8279  -37.1958   10.8789  -36.8537   11.8302  -65.7093  -47.8514
  5.790  -37.0625   10.7161  -37.2686   11.3492  -37.1411   10.2882  -36.9115   10.3218  -36.7875   10.3807  -36.4921   11.2942  -58.0284  -47.8727
  5.800  -36.6562   10.2185  -36.8727   10.8244  -36.7210    9.8253  -36.5075    9.8498  -36.3820    9.9156  -36.1280   10.7919  -51.0080  -47.8914
  5.810  -36.2526    9.7542  -36.4773   10.3341  -36.3060    9.3927  -36.1069    9.4092  -35.9804    9.4811  -35.7632   10.3209  -44.6212  -47.9078
  5.820  -35.8528    9.3208  -36.0837    9.8757  -35.8969    8.9882  -35.7107    8.9977  -35.5836    9.0748  -35.3989    9.8791  -38.8389  -47.9221
  5.830  -35.4578    8.9158  -35.6933    9.4468  -35.4941    8.6096  -35.3196    8.6128  -35.1923    8.6945  -35.0363    9.4645  -33.6311  -47.9345
  5.840  -35.0682    8.5369  -35.3068    9.0454  -35.0982    8.2549  -34.9343    8.2525  -34.8070    8.3383  -34.6763    9.0752  -28.9658  -47.9451
  5.850  -34.6845    8.1822  -34.9251    8.6693  -34.7093    7.9223  -34.5553    7.9150  -34.4281    8.0042  -34.3197    8.7095  -24.8102  -47.9542
  5.860  -34.3073    7.8497  -34.5488    8.3167  -34.3277    7.6101  -34.1827    7.5984  -34.0558    7.6907  -33.9672    8.3656  -21.1303  -47.9620
  5.870  -33.9368    7.5378  -34.1782    7.9857  -33.9535    7.3168  -33.8170    7.3011  -33.6904    7.3960  -33.6192    8.0422  -17.8917  -47.9686
  5.880  -33.5731    7.2450  -33.8138    7.6749  -33.5868    7.0410  -33.4581    7.0218  -33.3320    7.1190  -33.2760    7.7376  -15.0593  -47.9741
  5.890  -33.2164    6.9696  -33.4558    7.3827  -33.2276    6.7814  -33.1063    6.7590  -32.9807    6.8582  -32.9382    7.4507  -12.5984  -47.9787
  5.900  -32.8668    6.7106  -33.1043    7.1078  -32.8759    6.5369  -32.7614    6.5115  -32.6364    6.6124  -32.6057    7.1801  -10.4744  -47.9826
  5.910  -32.5243    6.4665  -32.7594    6.8489  -32.5315    6.3063  -32.4236    6.2782  -32.2991    6.3806  -32.2789    6.9248   -8.6537  -47.9858
  5.920  -32.1887    6.2364  -32.4212    6.6048  -32.1945    6.0886  -32.0926    6.0581  -31.9688    6.1618  -31.9577    6.6836   -7.1038  -47.9884
  5.930  -31.8602    6.0193  -32.0897    6.3745  -31.8646    5.8830  -31.7686    5.8502  -31.6454    5.9550  -31.6424    6.4557   -5.7937  -47.9905
  5.940  -31.5385    5.8142  -31.7649    6.1569  -31.5419    5.6886  -31.4513    5.6536  -31.3287    5.7594  -31.3328    6.2400   -4.6943  -47.9922
  5.950  -31.2235    5.6202  -31.4467    5.9513  -31.2261    5.5046  -31.1406    5.4676  -31.0187    5.5742  -31.0290    6.0358   -3.7783  -47.9936
  5.960  -30.9152    5.4366  -31.1349    5.7568  -30.9170    5.3303  -30.8364    5.2915  -30.7152    5.3988  -30.7309    5.8423   -3.0207  -47.9947
  5.970  -30.6134    5.2627  -30.8296    5.5725  -30.6146    5.1651  -30.5386    5.1245  -30.4180    5.2324  -30.4385    5.6588   -2.3987  -47.9956
  5.980  -30.3179    5.0978  -30.5305    5.3979  -30.3186    5.0083  -30.2469    4.9660  -30.1271    5.0744  -30.1517    5.4846   -1.8919  -47.9963
  5.990  -30.0285    4.9413  -30.2376    5.2323  -30.0289    4.8594  -29.9613    4.8155  -29.8422    4.9243  -29.8705    5.3192   -1.4820  -47.9969
  6.000  -29.7453    4.7927  -29.9507    5.0750  -29.7452    4.7178  -29.6816    4.6725  -29.5632    4.7816  -29.5947    5.1619   -1.1529  -47.9973
  6.010  -29.4678    4.6514  -29.6697    4.9255  -29.4676    4.5831  -29.4077    4.5365  -29.2899    4.6458  -29.3242    5.0122   -0.8906  -47.9976
  6.020  -29.1961    4.5170  -29.3944    4.7834  -29.1957    4.4549  -29.1393    4.4069  -29.0223    4.5165  -29.0589    4.8698   -0.6833  -47.9979
  6.030  -28.9300    4.3890  -29.1247    4.6480  -28.9294    4.3328  -28.8763    4.2835  -28.7600    4.3932  -28.7987    4.7340   -0.5206  -47.9980
  6.040  -28.6692    4.2670  -28.8604    4.5192  -28.6685    4.2163  -28.6186    4.1659  -28.5030    4.2757  -28.5435    4.6045   -0.3938  -47.9982
  6.050  -28.4137    4.1506  -28.6014    4.3963  -28.4130    4.1051  -28.3660    4.0536  -28.2511    4.1634  -28.2931    4.4809   -0.2958  -47.9983
  6.060  -28.1632    4.0396  -28.3476    4.2790  -28.1625    3.9990  -28.1184    3.9464  -28.0042    4.0562  -28.0475    4.3629   -0.2207  -47.9984
  6.070  -27.9177    3.9336  -28.0988    4.1671  -27.9170    3.8975  -27.8756    3.8439  -27.7622    3.9537  -27.8065    4.2502   -0.1634  -47.9984
  6.080  -27.6770    3.8322  -27.8548    4.0601  -27.6763    3.8005  -27.6375    3.7459  -27.5248    3.8556  -27.5700    4.1423   -0.1202  -47.9985
  6.090  -27.4409    3.7353  -27.6155    3.9578  -27.4403    3.7076  -27.4039    3.6521  -27.2919    3.7617  -27.3379    4.0391   -0.0878  -47.9985
  6.100  -27.2094    3.6425  -27.3808    3.8600  -27.2088    3.6187  -27.1747    3.5623  -27.0634    3.6718  -27.1100    3.9403   -0.0636  -47.9985
  6.110  -26.9822    3.5536  -27.1505    3.7663  -26.9817    3.5335  -26.9498    3.4763  -26.8393    3.5856  -26.8863    3.8456   -0.0458  -47.9986
  6.120  -26.7593    3.4684  -26.9246    3.6765  -26.7589    3.4517  -26.7290    3.3938  -26.6192    3.5029  -26.6666    3.7548   -0.0328  -47.9986
  6.130  -26.5404    3.3867  -26.7028    3.5904  -26.5402    3.3733  -26.5123    3.3146  -26.4032    3.4235  -26.4508    3.6676   -0.0232  -47.9986
  6.140  -26.3256    3.3084  -26.4851    3.5078  -26.3255    3.2980  -26.2994    3.2386  -26.1911    3.3472  -26.2389    3.5840   -0.0164  -47.9986
  6.150  -26.1146    3.2331  -26.2714    3.4285  -26.1147    3.2256  -26.0904    3.1656  -25.9828    3.2740  -26.0307    3.5036   -0.0115  -47.9986
  6.160  -25.9074    3.1608  -26.0615    3.3523  -25.9077    3.1561  -25.8850    3.0954  -25.7782    3.2035  -25.8260    3.4264   -0.0080  -47.9986
  6.170  -25.7039    3.0913  -25.8553    3.2791  -25.7043    3.0892  -25.6833    3.0279  -25.5771    3.1357  -25.6249    3.3521   -0.0055  -47.9986
  6.180  -25.5039    3.0244  -25.6528    3.2087  -25.5045    3.0248  -25.4849    2.9630  -25.3795    3.0705  -25.4272    3.2806   -0.0038  -47.9986
  6.190  -25.3074    2.9600  -25.4537    3.1410  -25.3081    2.9628  -25.2900    2.9004  -25.1853    3.0076  -25.2328    3.2118   -0.0026  -47.9986
  6.200  -25.1142    2.8980  -25.2580    3.0758  -25.1150    2.9030  -25.0983    2.8402  -24.9944    2.9470  -25.0417    3.1455   -0.0017  -47.9986
  6.210  -24.9242    2.8383  -25.0657    3.0129  -24.9253    2.8454  -24.9099    2.7821  -24.8066    2.8886  -24.8537    3.0816   -0.0012  -47.9986
  6.220  -24.7374    2.7808  -24.8766    2.9523  -24.7386    2.7898  -24.7245    2.7261  -24.6219    2.8323  -24.6687    3.0200   -0.0008  -47.9986
  6.230  -24.5537    2.7253  -24.6906    2.8939  -24.5551    2.7362  -24.5421    2.6721  -24.4403    2.7779  -24.4868    2.9606   -0.0005  -47.9986
  6.240  -24.3730    2.6717  -24.5077    2.8376  -24.3745    2.6844  -24.3627    2.6200  -24.2615    2.7253  -24.3077    2.9032   -0.0003  -47.9986
  6.250  -24.1951    2.6200  -24.3277    2.7832  -24.1969    2.6344  -24.1860    2.5696  -24.0856    2.6746  -24.1314    2.8478   -0.0002  -47.9986
  6.260  -24.0201    2.5700  -24.1506    2.7306  -24.0220    2.5861  -24.0122    2.5210  -23.9125    2.6255  -23.9579    2.7943   -0.0001  -47.9986
  6.270  -23.8478    2.5217  -23.9763    2.6798  -23.8499    2.5394  -23.8411    2.4739  -23.7420    2.5781  -23.7871    2.7425   -0.0001  -47.9986
  6.280  -23.6782    2.4751  -23.8047    2.6308  -23.6805    2.4942  -23.6725    2.4284  -23.5742    2.5322  -23.6189    2.6925   -0.0001  -47.9986
  6.290  -23.5112    2.4299  -23.6357    2.5833  -23.5136    2.4504  -23.5066    2.3844  -23.4089    2.4878  -23.4532    2.6440   -0.0000  -47.9986
  6.300  -23.3467    2.3862  -23.4694    2.5374  -23.3493    2.4081  -23.3431    2.3418  -23.2461    2.4448  -23.2900    2.5972   -0.0000  -47.9986
  6.310  -23.1847    2.3440  -23.3055    2.4929  -23.1875    2.3670  -23.1820    2.3006  -23.0858    2.4031  -23.1291    2.5518   -0.0000  -47.9986
  6.320  -23.0251    2.3030  -23.1441    2.4498  -23.0280    2.3273  -23.0233    2.2606  -22.9277    2.3627  -22.9707    2.5078   -0.0000  -47.9986
  6.330  -22.8678    2.2633  -22.9851    2.4081  -22.8709    2.2887  -22.8669    2.2219  -22.7720    2.3236  -22.8145    2.4652   -0.0000  -47.9986
  6.340  -22.7128    2.2249  -22.8284    2.3677  -22.7161    2.2513  -22.7128    2.1844  -22.6185    2.2856  -22.6606    2.4239   -0.0000  -47.9986
  6.350  -22.5600    2.1876  -22.6740    2.3285  -22.5634    2.2151  -22.5608    2.1480  -22.4672    2.2487  -22.5088    2.3838   -0.0000  -47.9986
  6.360  -22.4094    2.1514  -22.5218    2.2904  -22.4130    2.1799  -22.4109    2.1127  -22.3180    2.2130  -22.3591    2.3449   -0.0000  -47.9986
  6.370  -22.2609    2.1163  -22.3717    2.2535  -22.2646    2.1457  -22.2632    2.0784  -22.1709    2.1782  -22.2116    2.3072   -0.0000  -47.9986
  6.380  -22.1144    2.0823  -22.2237    2.2177  -22.1183    2.1125  -22.1174    2.0451  -22.0258    2.1445  -22.0660    2.2706   -0.0000  -47.9986
  6.390  -21.9700    2.0492  -22.0778    2.1829  -21.9740    2.0803  -21.9737    2.0128  -21.8827    2.1117  -21.9224    2.2350   -0.0000  -47.9986
  6.400  -21.8275    2.0171  -21.9339    2.1491  -21.8317    2.0489  -21.8318    1.9814  -21.7415    2.0799  -21.7808    2.2004   -0.0000  -47.9986
  6.410  -21.6869    1.9858  -21.7919    2.1163  -21.6912    2.0184  -21.6919    1.9508  -21.6022    2.0489  -21.6410    2.1668   -0.0000  -47.9986
  6.420  -21.5482    1.9555  -21.6518    2.0843  -21.5527    1.9888  -21.5538    1.9211  -21.4647    2.0187  -21.5031    2.1341   -0.0000  -47.9986
  6.430  -21.4114    1.9260  -21.5136    2.0533  -21.4159    1.9599  -21.4175    1.8923  -21.3290    1.9894  -21.3670    2.1023   -0.0000  -47.9986
  6.440  -21.2763    1.8973  -21.3772    2.0231  -21.2810    1.9319  -21.2829    1.8642  -21.1951    1.9609  -21.2326    2.0714   -0.0000  -47.9986
  6.450  -21.1429    1.8693  -21.2426    1.9937  -21.1478    1.9045  -21.1501    1.8368  -21.0629    1.9331  -21.1000    2.0413   -0.0000  -47.9986
  6.460  -21.0113    1.8421  -21.1096    1.9651  -21.0162    1.8779  -21.0190    1.8102  -20.9324    1.9060  -20.9690    2.0120   -0.0000  -47.9986
  6.470  -20.8813    1.8157  -20.9784    1.9372  -20.8864    1.8520  -20.8895    1.7843  -20.8035    1.8796  -20.8397    1.9834   -0.0000  -47.9986
  6.480  -20.7529    1.7899  -20.8489    1.9101  -20.7581    1.8267  -20.7616    1.7591  -20.6762    1.8539  -20.7119    1.9556   -0.0000  -47.9986
  6.490  -20.6261    1.7648  -20.7210    1.8836  -20.6315    1.8021  -20.6352    1.7345  -20.5504    1.8289  -20.5858    1.9285   -0.0000  -47.9986
  6.500  -20.5009    1.7403  -20.5946    1.8578  -20.5064    1.7780  -20.5104    1.7105  -20.4262    1.8044  -20.4611    1.9021   -0.0000  -47.9986
  6.510  -20.3772    1.7164  -20.4698    1.8327  -20.3828    1.7546  -20.3872    1.6871  -20.3035    1.7806  -20.3380    1.8764   -0.0000  -47.9986
  6.520  -20.2550    1.6931  -20.3465    1.8082  -20.2607    1.7318  -20.2653    1.6643  -20.1823    1.7574  -20.2164    1.8513   -0.0000  -47.9986
  6.530  -20.1343    1.6705  -20.2247    1.7843  -20.1401    1.7095  -20.1450    1.6421  -20.0625    1.7347  -20.0962    1.8268   -0.0000  -47.9986
  6.540  -20.0150    1.6483  -20.1043    1.7610  -20.0209    1.6877  -20.0260    1.6204  -19.9441    1.7125  -19.9774    1.8029   -0.0000  -47.9986
  6.550  -19.8970    1.6267  -19.9854    1.7383  -19.9030    1.6664  -19.9084    1.5992  -19.8271    1.6909  -19.8600    1.7796   -0.0000  -47.9986
  6.560  -19.7805    1.6056  -19.8679    1.7161  -19.7866    1.6457  -19.7922    1.5786  -19.7114    1.6698  -19.7439    1.7568   -0.0000  -47.9986
  6.570  -19.6653    1.5850  -19.7517    1.6944  -19.6715    1.6254  -19.6773    1.5584  -19.5971    1.6492  -19.6292    1.7345   -0.0000  -47.9986
  6.580  -19.5514    1.5649  -19.6368    1.6732  -19.5577    1.6056  -19.5637    1.5387  -19.4840    1.6290  -19.5157    1.7128   -0.0000  -47.9986
  6.590  -19.4388    1.5453  -19.5233    1.6525  -19.4451    1.5862  -19.4514    1.5194  -19.3723    1.6093  -19.4036    1.6916   -0.0000  -47.9986
  6.600  -19.3274    1.5261  -19.4110    1.6323  -19.3339    1.5673  -19.3403    1.5006  -19.2617    1.5900  -19.2927    1.6708   -0.0000  -47.9986
  6.610  -19.2173    1.5074  -19.3000    1.6125  -19.2238    1.5487  -19.2304    1.4822  -19.1524    1.5712  -19.1830    1.6506   -0.0000  -47.9986
  6.620  -19.1084    1.4890  -19.1902    1.5932  -19.1150    1.5306  -19.1218    1.4642  -19.0443    1.5528  -19.0745    1.6307   -0.0000  -47.9986
  6.630  -19.0007    1.4711  -19.0817    1.5743  -19.0074    1.5129  -19.0143    1.4466  -18.9373    1.5348  -18.9672    1.6113   -0.0000  -47.9986
  6.640  -18.8941    1.4536  -18.9743    1.5558  -18.9009    1.4956  -18.9080    1.4294  -18.8315    1.5171  -18.8610    1.5924   -0.0000  -47.9986
  6.650  -18.7887    1.4365  -18.8681    1.5377  -18.7956    1.4786  -18.8028    1.4126  -18.7269    1.4999  -18.7560    1.5738   -0.0000  -47.9986
  6.660  -18.6844    1.4197  -18.7630    1.5200  -18.6913    1.4620  -18.6987    1.3962  -18.6233    1.4830  -18.6521    1.5557   -0.0000  -47.9986
  6.670  -18.5812    1.4033  -18.6590    1.5027  -18.5882    1.4458  -18.5957    1.3800  -18.5208    1.4664  -18.5493    1.5379   -0.0000  -47.9986
  6.680  -18.4791    1.3872  -18.5562    1.4857  -18.4862    1.4298  -18.4938    1.3643  -18.4194    1.4502  -18.4476    1.5205   -0.0000  -47.9986
  6.690  -18.3781    1.3715  -18.4544    1.4691  -18.3852    1.4142  -18.3930    1.3488  -18.3190    1.4344  -18.3469    1.5034   -0.0000  -47.9986
  6.700  -18.2781    1.3561  -18.3536    1.4529  -18.2853    1.3989  -18.2931    1.3337  -18.2197    1.4188  -18.2472    1.4868   -0.0000  -47.9986
  6.710  -18.1791    1.3410  -18.2539    1.4369  -18.1863    1.3840  -18.1943    1.3189  -18.1214    1.4036  -18.1486    1.4704   -0.0000  -47.9986
  6.720  -18.0811    1.3262  -18.1552    1.4213  -18.0884    1.3693  -18.0965    1.3044  -18.0240    1.3887  -18.0509    1.4544   -0.0000  -47.9986
  6.730  -17.9841    1.3118  -18.0576    1.4060  -17.9915    1.3549  -17.9997    1.2902  -17.9277    1.3740  -17.9542    1.4387   -0.0000  -47.9986
  6.740  -17.8881    1.2976  -17.9609    1.3911  -17.8955    1.3408  -17.9038    1.2762  -17.8323    1.3597  -17.8585    1.4233   -0.0000  -47.9986
  6.750  -17.7930    1.2837  -17.8651    1.3764  -17.8005    1.3270  -17.8088    1.2626  -17.7378    1.3456  -17.7638    1.4082   -0.0000  -47.9986
  6.760  -17.6989    1.2700  -17.7703    1.3620  -17.7064    1.3134  -17.7148    1.2492  -17.6443    1.3318  -17.6699    1.3935   -0.0000  -47.9986
  6.770  -17.6056    1.2567  -17.6765    1.3478  -17.6132    1.3001  -17.6217    1.2361  -17.5516    1.3183  -17.5770    1.3790   -0.0000  -47.9986
  6.780  -17.5133    1.2436  -17.5835    1.3340  -17.5210    1.2870  -17.5295    1.2232  -17.4599    1.3050  -17.4850    1.3647   -0.0000  -47.9986
  6.790  -17.4219    1.2307  -17.4915    1.3204  -17.4296    1.2742  -17.4382    1.2105  -17.3690    1.2920  -17.3939    1.3508   -0.0000  -47.9986
  6.800  -17.3313    1.2181  -17.4003    1.3071  -17.3391    1.2616  -17.3478    1.1982  -17.2790    1.2792  -17.3036    1.3371   -0.0000  -47.9986
  6.810  -17.2416    1.2058  -17.3101    1.2940  -17.2494    1.2493  -17.2582    1.1860  -17.1899    1.2666  -17.2142    1.3237   -0.0000  -47.9986
  6.820  -17.1528    1.1936  -17.2206    1.2811  -17.1606    1.2372  -17.1694    1.1741  -17.1016    1.2543  -17.1256    1.3105   -0.0000  -47.9986
  6.830  -17.0648    1.1817  -17.1320    1.2685  -17.0726    1.2253  -17.0815    1.1623  -17.0141    1.2422  -17.0378    1.2976   -0.0000  -47.9986
  6.840  -16.9775    1.1700  -17.0443    1.2561  -16.9855    1.2136  -16.9944    1.1508  -16.9274    1.2303  -16.9509    1.2848   -0.0000  -47.9986
  6.850  -16.8911    1.1585  -16.9573    1.2440  -16.8991    1.2021  -16.9080    1.1396  -16.8415    1.2186  -16.8647    1.2724   -0.0000  -47.9986
  6.860  -16.8055    1.1473  -16.8712    1.2321  -16.8135    1.1908  -16.8225    1.1285  -16.7564    1.2071  -16.7794    1.2601   -0.0000  -47.9986
  6.870  -16.7207    1.1362  -16.7858    1.2203  -16.7287    1.1797  -16.7378    1.1176  -16.6721    1.1959  -16.6948    1.2481   -0.0000  -47.9986
  6.880  -16.6366    1.1253  -16.7013    1.2088  -16.6447    1.1688  -16.6538    1.1069  -16.5885    1.1848  -16.6110    1.2363   -0.0000  -47.9986
  6.890  -16.5533    1.1146  -16.6174    1.1975  -16.5614    1.1581  -16.5705    1.0964  -16.5057    1.1739  -16.5279    1.2246   -0.0000  -47.9986
  6.900  -16.4707    1.1041  -16.5344    1.1864  -16.4789    1.1476  -16.4880    1.0860  -16.4236    1.1632  -16.4456    1.2132   -0.0000  -47.9986
  6.910  -16.3889    1.0938  -16.4521    1.1754  -16.3971    1.1373  -16.4062    1.0759  -16.3422    1.1527  -16.3640    1.2020   -0.0000  -47.9986
  6.920  -16.3078    1.0837  -16.3705    1.1647  -16.3160    1.1271  -16.3252    1.0659  -16.2615    1.1424  -16.2831    1.1910   -0.0000  -47.9986
  6.930  -16.2274    1.0737  -16.2896    1.1541  -16.2356    1.1171  -16.2448    1.0561  -16.1816    1.1322  -16.2029    1.1801   -0.0000  -47.9986
  6.940  -16.1477    1.0639  -16.2094    1.1437  -16.1559    1.1072  -16.1651    1.0465  -16.1023    1.1222  -16.1234    1.1695   -0.0000  -47.9986
  6.950  -16.0686    1.0543  -16.1299    1.1335  -16.0769    1.0976  -16.0861    1.0370  -16.0237    1.1124  -16.0446    1.1590   -0.0000  -47.9986
  6.960  -15.9903    1.0448  -16.0512    1.1235  -15.9986    1.0880  -16.0078    1.0277  -15.9458    1.1027  -15.9664    1.1487   -0.0000  -47.9986
  6.970  -15.9126    1.0355  -15.9730    1.1136  -15.9209    1.0787  -15.9302    1.0185  -15.8686    1.0932  -15.8890    1.1386   -0.0000  -47.9986
  6.980  -15.8356    1.0264  -15.8956    1.1039  -15.8439    1.0695  -15.8532    1.0095  -15.7920    1.0838  -15.8122    1.1286   -0.0000  -47.9986
  6.990  -15.7592    1.0174  -15.8188    1.0943  -15.7676    1.0604  -15.7769    1.0006  -15.7160    1.0746  -15.7360    1.1188   -0.0000  -47.9986
  7.000  -15.6834    1.0085  -15.7427    1.0849  -15.6918    1.0515  -15.7011    0.9919  -15.6407    1.0655  -15.6604    1.1091   -0.0000  -47.9986
  7.010  -15.6083    0.9998  -15.6671    1.0756  -15.6167    1.0427  -15.6261    0.9833  -15.5659    1.0566  -15.5855    1.0996   -0.0000  -47.9986
  7.020  -15.5338    0.9912  -15.5923    1.0665  -15.5423    1.0340  -15.5516    0.9749  -15.4919    1.0478  -15.5112    1.0903   -0.0000  -47.9986
  7.030  -15.4600    0.9828  -15.5180    1.0576  -15.4684    1.0255  -15.4777    0.9665  -15.4184    1.0391  -15.4376    1.0811   -0.0000  -47.9986
  7.040  -15.3867    0.9744  -15.4443    1.0487  -15.3951    1.0171  -15.4045    0.9584  -15.3455    1.0306  -15.3645    1.0720   -0.0000  -47.9986
  7.050  -15.3140    0.9663  -15.3713    1.0400  -15.3225    1.0089  -15.3318    0.9503  -15.2732    1.0222  -15.2920    1.0631   -0.0000  -47.9986
  7.060  -15.2419    0.9582  -15.2988    1.0315  -15.2504    1.0007  -15.2597    0.9424  -15.2014    1.0139  -15.2201    1.0543   -0.0000  -47.9986
  7.070  -15.1704    0.9503  -15.2270    1.0230  -15.1789    0.9927  -15.1882    0.9345  -15.1303    1.0058  -15.1487    1.0456   -0.0000  -47.9986
  7.080  -15.0994    0.9425  -15.1557    1.0147  -15.1079    0.9848  -15.1173    0.9268  -15.0597    0.9978  -15.0780    1.0371   -0.0000  -47.9986
  7.090  -15.0290    0.9348  -15.0849    1.0065  -15.0376    0.9770  -15.0469    0.9193  -14.9897    0.9899  -15.0078    1.0287   -0.0000  -47.9986
  7.100  -14.9592    0.9272  -15.0148    0.9985  -14.9678    0.9694  -14.9771    0.9118  -14.9202    0.9821  -14.9381    1.0205   -0.0000  -47.9986
  7.110  -14.8899    0.9197  -14.9451    0.9905  -14.8985    0.9618  -14.9078    0.9044  -14.8513    0.9744  -14.8690    1.0123   -0.0000  -47.9986
  7.120  -14.8212    0.9124  -14.8761    0.9827  -14.8297    0.9544  -14.8391    0.8972  -14.7829    0.9668  -14.8004    1.0043   -0.0000  -47.9986
  7.130  -14.7530    0.9051  -14.8075    0.9750  -14.7615    0.9470  -14.7709    0.8901  -14.7150    0.9594  -14.7324    0.9964   -0.0000  -47.9986
  7.140  -14.6853    0.8980  -14.7395    0.9674  -14.6938    0.9398  -14.7032    0.8830  -14.6477    0.9520  -14.6649    0.9886   -0.0000  -47.9986
  7.150  -14.6181    0.8910  -14.6721    0.9599  -14.6267    0.9327  -14.6360    0.8761  -14.5808    0.9448  -14.5979    0.9809   -0.0000  -47.9986
  7.160  -14.5514    0.8840  -14.6051    0.9525  -14.5600    0.9256  -14.5693    0.8693  -14.5145    0.9377  -14.5314    0.9734   -0.0000  -47.9986
  7.170  -14.4853    0.8772  -14.5386    0.9452  -14.4939    0.9187  -14.5032    0.8625  -14.4487    0.9306  -14.4654    0.9659   -0.0000  -47.9986
  7.180  -14.4196    0.8705  -14.4727    0.9381  -14.4282    0.9119  -14.4375    0.8559  -14.3833    0.9237  -14.3999    0.9586   -0.0000  -47.9986
  7.190  -14.3545    0.8638  -14.4072    0.9310  -14.3631    0.9051  -14.3724    0.8493  -14.3185    0.9168  -14.3349    0.9513   -0.0000  -47.9986
  7.200  -14.2898    0.8573  -14.3423    0.9240  -14.2984    0.8985  -14.3077    0.8429  -14.2541    0.9101  -14.2704    0.9442   -0.0000  -47.9986
  7.210  -14.2256    0.8509  -14.2778    0.9171  -14.2342    0.8919  -14.2435    0.8365  -14.1902    0.9034  -14.2063    0.9371   -0.0000  -47.9986
  7.220  -14.1619    0.8445  -14.2138    0.9104  -14.1705    0.8854  -14.1797    0.8302  -14.1268    0.8969  -14.1428    0.9302   -0.0000  -47.9986
  7.230  -14.0986    0.8382  -14.1503    0.9037  -14.1072    0.8790  -14.1165    0.8240  -14.0638    0.8904  -14.0797    0.9233   -0.0000  -47.9986
  7.240  -14.0358    0.8320  -14.0872    0.8971  -14.0444    0.8728  -14.0536    0.8179  -14.0013    0.8840  -14.0170    0.9165   -0.0000  -47.9986
  7.250  -13.9734    0.8259  -14.0246    0.8905  -13.9821    0.8665  -13.9913    0.8119  -13.9393    0.8777  -13.9548    0.9099   -0.0000  -47.9986
  7.260  -13.9115    0.8199  -13.9625    0.8841  -13.9202    0.8604  -13.9294    0.8060  -13.8777    0.8715  -13.8931    0.9033   -0.0000  -47.9986
  7.270  -13.8501    0.8140  -13.9008    0.8778  -13.8587    0.8544  -13.8679    0.8001  -13.8165    0.8653  -13.8318    0.8968   -0.0000  -47.9986
  7.280  -13.7891    0.8081  -13.8396    0.8715  -13.7977    0.8484  -13.8069    0.7943  -13.7558    0.8593  -13.7709    0.8904   -0.0000  -47.9986
  7.290  -13.7285    0.8023  -13.7788    0.8653  -13.7371    0.8425  -13.7463    0.7886  -13.6955    0.8533  -13.7105    0.8841   -0.0000  -47.9986
  7.300  -13.6684    0.7966  -13.7184    0.8593  -13.6770    0.8367  -13.6861    0.7830  -13.6356    0.8474  -13.6505    0.8778   -0.0000  -47.9986
  7.310  -13.6086    0.7910  -13.6584    0.8532  -13.6172    0.8309  -13.6264    0.7774  -13.5762    0.8416  -13.5909    0.8717   -0.0000  -47.9986
  7.320  -13.5493    0.7855  -13.5989    0.8473  -13.5579    0.8253  -13.5671    0.7720  -13.5171    0.8358  -13.5317    0.8656   -0.0000  -47.9986
  7.330  -13.4904    0.7800  -13.5398    0.8414  -13.4990    0.8197  -13.5081    0.7665  -13.4585    0.8301  -13.4730    0.8596   -0.0000  -47.9986
  7.340  -13.4319    0.7746  -13.4811    0.8357  -13.4405    0.8141  -13.4496    0.7612  -13.4003    0.8245  -13.4146    0.8537   -0.0000  -47.9986
  7.350  -13.3738    0.7692  -13.4228    0.8300  -13.3824    0.8087  -13.3915    0.7559  -13.3425    0.8190  -13.3567    0.8478   -0.0000  -47.9986
  7.360  -13.3161    0.7640  -13.3649    0.8243  -13.3247    0.8033  -13.3338    0.7507  -13.2850    0.8135  -13.2991    0.8421   -0.0000  -47.9986
  7.370  -13.2588    0.7588  -13.3074    0.8187  -13.2674    0.7980  -13.2765    0.7456  -13.2280    0.8081  -13.2420    0.8364   -0.0000  -47.9986
  7.380  -13.2019    0.7536  -13.2503    0.8132  -13.2105    0.7927  -13.2196    0.7405  -13.1714    0.8028  -13.1852    0.8307   -0.0000  -47.9986
  7.390  -13.1454    0.7485  -13.1936    0.8078  -13.1540    0.7875  -13.1630    0.7355  -13.1151    0.7975  -13.1288    0.8252   -0.0000  -47.9986
  7.400  -13.0893    0.7435  -13.1373    0.8025  -13.0978    0.7824  -13.1069    0.7305  -13.0592    0.7923  -13.0728    0.8197   -0.0000  -47.9986
  7.410  -13.0335    0.7386  -13.0814    0.7972  -13.0421    0.7773  -13.0511    0.7256  -13.0037    0.7872  -13.0172    0.8143   -0.0000  -47.9986
  7.420  -12.9781    0.7337  -13.0258    0.7919  -12.9867    0.7723  -12.9957    0.7208  -12.9485    0.7821  -12.9619    0.8089   -0.0000  -47.9986
  7.430  -12.9231    0.7289  -12.9706    0.7868  -12.9316    0.7674  -12.9406    0.7160  -12.8937    0.7771  -12.9070    0.8037   -0.0000  -47.9986
  7.440  -12.8684    0.7241  -12.9158    0.7816  -12.8769    0.7625  -12.8859    0.7113  -12.8393    0.7722  -12.8525    0.7984   -0.0000  -47.9986
  7.450  -12.8141    0.7194  -12.8613    0.7766  -12.8226    0.7577  -12.8316    0.7067  -12.7853    0.7673  -12.7983    0.7933   -0.0000  -47.9986
  7.460  -12.7601    0.7148  -12.8072    0.7716  -12.7687    0.7529  -12.7776    0.7021  -12.7315    0.7624  -12.7445    0.7882   -0.0000  -47.9986
  7.470  -12.7065    0.7102  -12.7534    0.7667  -12.7150    0.7482  -12.7240    0.6975  -12.6782    0.7577  -12.6910    0.7832   -0.0000  -47.9986
  7.480  -12.6533    0.7057  -12.7000    0.7618  -12.6618    0.7435  -12.6707    0.6930  -12.6251    0.7529  -12.6379    0.7782   -0.0000  -47.9986
  7.490  -12.6003    0.7012  -12.6469    0.7570  -12.6088    0.7389  -12.6178    0.6886  -12.5725    0.7483  -12.5851    0.7733   -0.0000  -47.9986
  7.500  -12.5478    0.6967  -12.5942    0.7523  -12.5563    0.7344  -12.5652    0.6842  -12.5201    0.7437  -12.5326    0.7684   -0.0000  -47.9986
  7.510  -12.4955    0.6924  -12.5418    0.7476  -12.5040    0.7299  -12.5129    0.6799  -12.4681    0.7391  -12.4805    0.7636   -0.0000  -47.9986
  7.520  -12.4436    0.6881  -12.4898    0.7429  -12.4521    0.7254  -12.4610    0.6756  -12.4164    0.7346  -12.4287    0.7589   -0.0000  -47.9986
  7.530  -12.3920    0.6838  -12.4381    0.7384  -12.4005    0.7210  -12.4093    0.6714  -12.3650    0.7302  -12.3773    0.7542   -0.0000  -47.9986
  7.540  -12.3407    0.6796  -12.3867    0.7338  -12.3492    0.7167  -12.3581    0.6672  -12.3140    0.7258  -12.3261    0.7496   -0.0000  -47.9986
  7.550  -12.2898    0.6754  -12.3356    0.7293  -12.2982    0.7124  -12.3071    0.6631  -12.2633    0.7214  -12.2753    0.7450   -0.0000  -47.9986
  7.560  -12.2392    0.6713  -12.2849    0.7249  -12.2476    0.7082  -12.2564    0.6590  -12.2129    0.7171  -12.2248    0.7405   -0.0000  -47.9986
  7.570  -12.1888    0.6672  -12.2345    0.7205  -12.1973    0.7040  -12.2061    0.6549  -12.1628    0.7129  -12.1746    0.7360   -0.0000  -47.9986
  7.580  -12.1388    0.6632  -12.1844    0.7162  -12.1472    0.6998  -12.1561    0.6510  -12.1130    0.7087  -12.1247    0.7316   -0.0000  -47.9986
  7.590  -12.0891    0.6592  -12.1346    0.7119  -12.0975    0.6957  -12.1063    0.6470  -12.0635    0.7045  -12.0752    0.7272   -0.0000  -47.9986
  7.600  -12.0397    0.6553  -12.0851    0.7077  -12.0481    0.6917  -12.0569    0.6431  -12.0143    0.7004  -12.0259    0.7229   -0.0000  -47.9986
  7.610  -11.9906    0.6514  -12.0359    0.7035  -11.9990    0.6877  -12.0078    0.6392  -11.9654    0.6964  -11.9769    0.7187   -0.0000  -47.9986
  7.620  -11.9418    0.6475  -11.9870    0.6994  -11.9502    0.6837  -11.9590    0.6354  -11.9168    0.6923  -11.9282    0.7144   -0.0000  -47.9986
  7.630  -11.8933    0.6437  -11.9384    0.6953  -11.9017    0.6798  -11.9104    0.6317  -11.8685    0.6884  -11.8798    0.7103   -0.0000  -47.9986
  7.640  -11.8451    0.6400  -11.8901    0.6912  -11.8534    0.6759  -11.8622    0.6279  -11.8205    0.6845  -11.8317    0.7061   -0.0000  -47.9986
  7.650  -11.7971    0.6363  -11.8421    0.6872  -11.8055    0.6721  -11.8142    0.6242  -11.7728    0.6806  -11.7839    0.7021   -0.0000  -47.9986
  7.660  -11.7495    0.6326  -11.7943    0.6833  -11.7578    0.6683  -11.7665    0.6206  -11.7253    0.6767  -11.7364    0.6980   -0.0000  -47.9986
  7.670  -11.7021    0.6290  -11.7469    0.6793  -11.7104    0.6645  -11.7192    0.6170  -11.6782    0.6729  -11.6891    0.6941   -0.0000  -47.9986
  7.680  -11.6550    0.6254  -11.6997    0.6755  -11.6633    0.6608  -11.6720    0.6134  -11.6313    0.6692  -11.6422    0.6901   -0.0000  -47.9986
  7.690  -11.6082    0.6218  -11.6528    0.6716  -11.6165    0.6571  -11.6252    0.6099  -11.5847    0.6655  -11.5955    0.6862   -0.0000  -47.9986
  7.700  -11.5616    0.6183  -11.6062    0.6678  -11.5699    0.6535  -11.5786    0.6064  -11.5383    0.6618  -11.5490    0.6824   -0.0000  -47.9986
  7.710  -11.5154    0.6149  -11.5599    0.6641  -11.5236    0.6499  -11.5323    0.6030  -11.4922    0.6582  -11.5029    0.6785   -0.0000  -47.9986
  7.720  -11.4693    0.6114  -11.5138    0.6604  -11.4776    0.6464  -11.4863    0.5995  -11.4464    0.6546  -11.4570    0.6748   -0.0000  -47.9986
  7.730  -11.4236    0.6080  -11.4680    0.6567  -11.4318    0.6429  -11.4405    0.5962  -11.4008    0.6510  -11.4113    0.6710   -0.0000  -47.9986
  7.740  -11.3781    0.6047  -11.4225    0.6531  -11.3863    0.6394  -11.3950    0.5928  -11.3555    0.6475  -11.3660    0.6674   -0.0000  -47.9986
  7.750  -11.3328    0.6014  -11.3772    0.6495  -11.3410    0.6359  -11.3497    0.5895  -11.3105    0.6440  -11.3208    0.6637   -0.0000  -47.9986
  7.760  -11.2878    0.5981  -11.3322    0.6460  -11.2960    0.6325  -11.3047    0.5862  -11.2657    0.6406  -11.2760    0.6601   -0.0000  -47.9986
  7.770  -11.2431    0.5948  -11.2874    0.6424  -11.2513    0.6292  -11.2600    0.5830  -11.2212    0.6372  -11.2314    0.6565   -0.0000  -47.9986
  7.780  -11.1986    0.5916  -11.2429    0.6390  -11.2068    0.6258  -11.2154    0.5798  -11.1769    0.6338  -11.1870    0.6530   -0.0000  -47.9986
  7.790  -11.1544    0.5884  -11.1987    0.6355  -11.1625    0.6225  -11.1712    0.5766  -11.1328    0.6305  -11.1429    0.6495   -0.0000  -47.9986
  7.800  -11.1104    0.5853  -11.1547    0.6321  -11.1185    0.6193  -11.1272    0.5735  -11.0890    0.6272  -11.0990    0.6461   -0.0000  -47.9986
  7.810  -11.0666    0.5822  -11.1109    0.6288  -11.0747    0.6161  -11.0834    0.5704  -11.0455    0.6240  -11.0554    0.6427   -0.0000  -47.9986
  7.820  -11.0231    0.5791  -11.0674    0.6254  -11.0312    0.6129  -11.0399    0.5673  -11.0021    0.6207  -11.0120    0.6393   -0.0000  -47.9986
  7.830  -10.9798    0.5761  -11.0241    0.6221  -10.9879    0.6097  -10.9965    0.5643  -10.9590    0.6176  -10.9688    0.6359   -0.0000  -47.9986
  7.840  -10.9367    0.5731  -10.9810    0.6189  -10.9448    0.6066  -10.9535    0.5613  -10.9162    0.6144  -10.9259    0.6326   -0.0000  -47.9986
  7.850  -10.8939    0.5701  -10.9382    0.6156  -10.9020    0.6035  -10.9106    0.5583  -10.8735    0.6113  -10.8832    0.6294   -0.0000  -47.9986
  7.860  -10.8513    0.5672  -10.8956    0.6125  -10.8593    0.6005  -10.8680    0.5554  -10.8311    0.6082  -10.8407    0.6261   -0.0000  -47.9986
  7.870  -10.8090    0.5643  -10.8533    0.6093  -10.8169    0.5974  -10.8256    0.5525  -10.7889    0.6051  -10.7984    0.6229   -0.0000  -47.9986
  7.880  -10.7668    0.5614  -10.8111    0.6062  -10.7748    0.5944  -10.7835    0.5496  -10.7470    0.6021  -10.7564    0.6198   -0.0000  -47.9986
  7.890  -10.7249    0.5586  -10.7692    0.6031  -10.7328    0.5915  -10.7415    0.5468  -10.7052    0.5991  -10.7146    0.6166   -0.0000  -47.9986
  7.900  -10.6832    0.5558  -10.7276    0.6000  -10.6911    0.5886  -10.6998    0.5439  -10.6637    0.5962  -10.6730    0.6135   -0.0000  -47.9986
  7.910  -10.6417    0.5530  -10.6861    0.5970  -10.6496    0.5857  -10.6583    0.5412  -10.6224    0.5933  -10.6317    0.6105   -0.0000  -47.9986
  7.920  -10.6004    0.5502  -10.6449    0.5940  -10.6083    0.5828  -10.6170    0.5384  -10.5813    0.5904  -10.5905    0.6075   -0.0000  -47.9986
  7.930  -10.5593    0.5475  -10.6038    0.5910  -10.5672    0.5800  -10.5759    0.5357  -10.5404    0.5875  -10.5495    0.6045   -0.0000  -47.9986
  7.940  -10.5184    0.5448  -10.5630    0.5881  -10.5263    0.5771  -10.5350    0.5330  -10.4998    0.5847  -10.5088    0.6015   -0.0000  -47.9986
  7.950  -10.4778    0.5422  -10.5224    0.5852  -10.4856    0.5744  -10.4944    0.5303  -10.4593    0.5819  -10.4683    0.5986   -0.0000  -47.9986
  7.960  -10.4373    0.5395  -10.4820    0.5823  -10.4451    0.5716  -10.4539    0.5276  -10.4190    0.5791  -10.4279    0.5957   -0.0000  -47.9986
  7.970  -10.3970    0.5369  -10.4419    0.5794  -10.4049    0.5689  -10.4136    0.5250  -10.3789    0.5764  -10.3878    0.5928   -0.0000  -47.9986
  7.980  -10.3570    0.5343  -10.4019    0.5766  -10.3648    0.5662  -10.3736    0.5224  -10.3391    0.5737  -10.3479    0.5900   -0.0000  -47.9986
  7.990  -10.3171    0.5318  -10.3621    0.5738  -10.3249    0.5636  -10.3337    0.5199  -10.2994    0.5710  -10.3082    0.5872   -0.0000  -47.9986
  8.000  -10.2774    0.5293  -10.3225    0.5711  -10.2852    0.5609  -10.2940    0.5173  -10.2599    0.5683  -10.2686    0.5844   -0.0000  -47.9986
  8.010  -10.2380    0.5268  -10.2831    0.5683  -10.2457    0.5583  -10.2545    0.5148  -10.2206    0.5657  -10.2293    0.5816   -0.0000  -47.9986
  8.020  -10.1987    0.5243  -10.2439    0.5656  -10.2064    0.5558  -10.2152    0.5123  -10.1815    0.5631  -10.1901    0.5789   -0.0000  -47.9986
  8.030  -10.1596    0.5219  -10.2049    0.5630  -10.1673    0.5532  -10.1761    0.5099  -10.1426    0.5606  -10.1512    0.5763   -0.0000  -47.9986
  8.040  -10.1207    0.5195  -10.1661    0.5603  -10.1284    0.5507  -10.1372    0.5074  -10.1039    0.5580  -10.1124    0.5736   -0.0000  -47.9986
  8.050  -10.0819    0.5171  -10.1275    0.5577  -10.0896    0.5482  -10.0985    0.5050  -10.0653    0.5555  -10.0738    0.5710   -0.0000  -47.9986
  8.060  -10.0434    0.5148  -10.0891    0.5551  -10.0510    0.5457  -10.0599    0.5026  -10.0270    0.5531  -10.0354    0.5684   -0.0000  -47.9986
  8.070  -10.0050    0.5124  -10.0509    0.5525  -10.0126    0.5433  -10.0215    0.5003   -9.9888    0.5506   -9.9971    0.5658   -0.0000  -47.9986
  8.080   -9.9668    0.5102  -10.0128    0.5500   -9.9744    0.5409   -9.9833    0.4979   -9.9508    0.5482   -9.9591    0.5633   -0.0000  -47.9986
  8.090   -9.9288    0.5079   -9.9749    0.5475   -9.9364    0.5385   -9.9453    0.4956   -9.9130    0.5458   -9.9212    0.5608   -0.0000  -47.9986
  8.100   -9.8909    0.5056   -9.9372    0.5450   -9.8985    0.5362   -9.9075    0.4933   -9.8753    0.5434   -9.8835    0.5583   -0.0000  -47.9986
  8.110   -9.8532    0.5034   -9.8997    0.5426   -9.8608    0.5338   -9.8698    0.4911   -9.8378    0.5411   -9.8459    0.5559   -0.0000  -47.9986
  8.120   -9.8157    0.5012   -9.8623    0.5401   -9.8232    0.5315   -9.8323    0.4888   -9.8005    0.5388   -9.8086    0.5534   -0.0000  -47.9986
  8.130   -9.7783    0.4991   -9.8251    0.5377   -9.7859    0.5293   -9.7949    0.4866   -9.7633    0.5365   -9.7713    0.5510   -0.0000  -47.9986
  8.140   -9.7411    0.4969   -9.7881    0.5353   -9.7486    0.5270   -9.7577    0.4844   -9.7263    0.5342   -9.7343    0.5487   -0.0000  -47.9986
  8.150   -9.7041    0.4948   -9.7513    0.5330   -9.7116    0.5248   -9.7207    0.4823   -9.6895    0.5320   -9.6974    0.5464   -0.0000  -47.9986
  8.160   -9.6672    0.4927   -9.7146    0.5307   -9.6747    0.5226   -9.6838    0.4801   -9.6528    0.5298   -9.6607    0.5440   -0.0000  -47.9986
  8.170   -9.6305    0.4907   -9.6781    0.5284   -9.6380    0.5204   -9.6471    0.4780   -9.6163    0.5276   -9.6241    0.5418   -0.0000  -47.9986
  8.180   -9.5939    0.4886   -9.6418    0.5261   -9.6014    0.5183   -9.6106    0.4759   -9.5799    0.5255   -9.5877    0.5395   -0.0000  -47.9986
  8.190   -9.5575    0.4866   -9.6056    0.5238   -9.5649    0.5162   -9.5742    0.4739   -9.5437    0.5234   -9.5515    0.5373   -0.0000  -47.9986
  8.200   -9.5213    0.4847   -9.5695    0.5216   -9.5286    0.5141   -9.5379    0.4718   -9.5077    0.5213   -9.5154    0.5351   -0.0000  -47.9986
  8.210   -9.4851    0.4827   -9.5337    0.5194   -9.4925    0.5120   -9.5018    0.4698   -9.4718    0.5192   -9.4794    0.5329   -0.0000  -47.9986
  8.220   -9.4492    0.4808   -9.4979    0.5172   -9.4565    0.5100   -9.4658    0.4678   -9.4360    0.5172   -9.4436    0.5308   -0.0000  -47.9986
  8.230   -9.4133    0.4789   -9.4624    0.5151   -9.4206    0.5080   -9.4300    0.4658   -9.4004    0.5152   -9.4079    0.5287   -0.0000  -47.9986
  8.240   -9.3776    0.4770   -9.4269    0.5129   -9.3849    0.5060   -9.3944    0.4639   -9.3649    0.5132   -9.3724    0.5266   -0.0000  -47.9986
  8.250   -9.3421    0.4751   -9.3917    0.5108   -9.3493    0.5040   -9.3588    0.4619   -9.3295    0.5112   -9.3370    0.5246   -0.0000  -47.9986
  8.260   -9.3066    0.4733   -9.3565    0.5088   -9.3139    0.5021   -9.3234    0.4600   -9.2943    0.5093   -9.3018    0.5225   -0.0000  -47.9986
  8.270   -9.2713    0.4715   -9.3215    0.5067   -9.2786    0.5002   -9.2881    0.4581   -9.2593    0.5074   -9.2666    0.5205   -0.0000  -47.9986
  8.280   -9.2362    0.4698   -9.2867    0.5047   -9.2434    0.4983   -9.2530    0.4563   -9.2243    0.5055   -9.2317    0.5186   -0.0000  -47.9986
  8.290   -9.2012    0.4680   -9.2520    0.5027   -9.2083    0.4964   -9.2180    0.4544   -9.1895    0.5036   -9.1968    0.5166   -0.0000  -47.9986
  8.300   -9.1662    0.4663   -9.2174    0.5007   -9.1734    0.4946   -9.1831    0.4526   -9.1548    0.5018   -9.1621    0.5147   -0.0000  -47.9986
  8.310   -9.1315    0.4646   -9.1830    0.4987   -9.1386    0.4928   -9.1484    0.4508   -9.1203    0.5000   -9.1275    0.5128   -0.0000  -47.9986
  8.320   -9.0968    0.4629   -9.1487    0.4968   -9.1039    0.4910   -9.1137    0.4490   -9.0858    0.4983   -9.0930    0.5110   -0.0000  -47.9986
  8.330   -9.0622    0.4613   -9.1145    0.4949   -9.0694    0.4893   -9.0792    0.4473   -9.0515    0.4965   -9.0587    0.5092   -0.0000  -47.9986
  8.340   -9.0278    0.4597   -9.0805    0.4930   -9.0349    0.4876   -9.0448    0.4456   -9.0173    0.4948   -9.0244    0.5074   -0.0000  -47.9986
  8.350   -8.9935    0.4581   -9.0466    0.4912   -9.0006    0.4859   -9.0105    0.4439   -8.9833    0.4931   -8.9903    0.5056   -0.0000  -47.9986
  8.360   -8.9593    0.4565   -9.0128    0.4893   -8.9663    0.4842   -8.9764    0.4422   -8.9493    0.4915   -8.9563    0.5039   -0.0000  -47.9986
  8.370   -8.9252    0.4550   -8.9791    0.4875   -8.9322    0.4826   -8.9423    0.4405   -8.9155    0.4898   -8.9224    0.5022   -0.0000  -47.9986
  8.380   -8.8912    0.4535   -8.9456    0.4857   -8.8982    0.4810   -8.9084    0.4389   -8.8817    0.4882   -8.8887    0.5005   -0.0000  -47.9986
  8.390   -8.8573    0.4520   -8.9121    0.4840   -8.8643    0.4794   -8.8745    0.4373   -8.8481    0.4867   -8.8550    0.4988   -0.0000  -47.9986
  8.400   -8.8235    0.4506   -8.8788    0.4823   -8.8304    0.4778   -8.8408    0.4357   -8.8145    0.4851   -8.8214    0.4972   -0.0000  -47.9986
  8.410   -8.7898    0.4492   -8.8456    0.4805   -8.7967    0.4763   -8.8071    0.4342   -8.7811    0.4836   -8.7879    0.4956   -0.0000  -47.9986
  8.420   -8.7562    0.4478   -8.8125    0.4789   -8.7631    0.4748   -8.7736    0.4326   -8.7478    0.4822   -8.7546    0.4941   -0.0000  -47.9986
  8.430   -8.7227    0.4465   -8.7796    0.4772   -8.7295    0.4733   -8.7401    0.4311   -8.7145    0.4807   -8.7213    0.4926   -0.0000  -47.9986
  8.440   -8.6893    0.4451   -8.7467    0.4756   -8.6961    0.4719   -8.7067    0.4296   -8.6814    0.4793   -8.6881    0.4911   -0.0000  -47.9986
  8.450   -8.6559    0.4438   -8.7139    0.4740   -8.6627    0.4705   -8.6735    0.4282   -8.6483    0.4779   -8.6550    0.4896   -0.0000  -47.9986
  8.460   -8.6227    0.4426   -8.6812    0.4724   -8.6294    0.4691   -8.6403    0.4267   -8.6154    0.4766   -8.6220    0.4882   -0.0000  -47.9986
  8.470   -8.5895    0.4414   -8.6487    0.4708   -8.5962    0.4678   -8.6071    0.4253   -8.5825    0.4753   -8.5891    0.4868   -0.0000  -47.9986
  8.480   -8.5564    0.4402   -8.6162    0.4693   -8.5631    0.4665   -8.5741    0.4239   -8.5497    0.4740   -8.5563    0.4855   -0.0000  -47.9986
  8.490   -8.5233    0.4390   -8.5838    0.4678   -8.5300    0.4652   -8.5411    0.4226   -8.5169    0.4728   -8.5235    0.4841   -0.0000  -47.9986
  8.500   -8.4904    0.4379   -8.5515    0.4664   -8.4970    0.4640   -8.5082    0.4213   -8.4843    0.4715   -8.4908    0.4829   -0.0000  -47.9986
  8.510   -8.4575    0.4368   -8.5193    0.4649   -8.4641    0.4628   -8.4754    0.4200   -8.4517    0.4704   -8.4582    0.4816   -0.0000  -47.9986
  8.520   -8.4246    0.4358   -8.4872    0.4635   -8.4312    0.4616   -8.4426    0.4187   -8.4192    0.4692   -8.4257    0.4804   -0.0000  -47.9986
  8.530   -8.3918    0.4348   -8.4552    0.4621   -8.3984    0.4605   -8.4099    0.4175   -8.3867    0.4681   -8.3932    0.4793   -0.0000  -47.9986
  8.540   -8.3591    0.4338   -8.4233    0.4608   -8.3656    0.4594   -8.3773    0.4162   -8.3544    0.4671   -8.3608    0.4781   -0.0000  -47.9986
  8.550   -8.3264    0.4328   -8.3914    0.4594   -8.3329    0.4584   -8.3447    0.4151   -8.3220    0.4661   -8.3284    0.4770   -0.0000  -47.9986
  8.560   -8.2938    0.4319   -8.3596    0.4581   -8.3003    0.4574   -8.3122    0.4139   -8.2898    0.4651   -8.2961    0.4760   -0.0000  -47.9986
  8.570   -8.2612    0.4311   -8.3279    0.4569   -8.2676    0.4564   -8.2797    0.4128   -8.2575    0.4642   -8.2638    0.4750   -0.0000  -47.9986
  8.580   -8.2286    0.4303   -8.2962    0.4556   -8.2350    0.4555   -8.2472    0.4117   -8.2253    0.4633   -8.2316    0.4740   -0.0000  -47.9986
  8.590   -8.1961    0.4295   -8.2647    0.4544   -8.2025    0.4546   -8.2148    0.4106   -8.1932    0.4624   -8.1995    0.4731   -0.0000  -47.9986
  8.600   -8.1636    0.4288   -8.2331    0.4533   -8.1699    0.4537   -8.1824    0.4096   -8.1611    0.4616   -8.1673    0.4723   -0.0000  -47.9986
  8.610   -8.1312    0.4281   -8.2017    0.4521   -8.1374    0.4529   -8.1500    0.4086   -8.1290    0.4609   -8.1353    0.4715   -0.0000  -47.9986
  8.620   -8.0987    0.4275   -8.1703    0.4510   -8.1049    0.4522   -8.1177    0.4077   -8.0970    0.4602   -8.1032    0.4707   -0.0000  -47.9986
  8.630   -8.0663    0.4269   -8.1389    0.4500   -8.0724    0.4515   -8.0853    0.4067   -8.0650    0.4595   -8.0712    0.4700   -0.0000  -47.9986
  8.640   -8.0338    0.4264   -8.1076    0.4489   -8.0400    0.4508   -8.0530    0.4059   -8.0330    0.4589   -8.0391    0.4693   -0.0000  -47.9986
  8.650   -8.0014    0.4259   -8.0763    0.4479   -8.0075    0.4502   -8.0207    0.4050   -8.0010    0.4584   -8.0071    0.4687   -0.0000  -47.9986
  8.660   -7.9690    0.4255   -8.0451    0.4470   -7.9750    0.4497   -7.9884    0.4042   -7.9691    0.4579   -7.9751    0.4682   -0.0000  -47.9986
  8.670   -7.9365    0.4252   -8.0140    0.4461   -7.9425    0.4492   -7.9561    0.4035   -7.9371    0.4575   -7.9432    0.4677   -0.0000  -47.9986
  8.680   -7.9041    0.4249   -7.9828    0.4452   -7.9100    0.4488   -7.9238    0.4028   -7.9051    0.4571   -7.9112    0.4672   -0.0000  -47.9986
  8.690   -7.8716    0.4247   -7.9517    0.4443   -7.8775    0.4484   -7.8914    0.4021   -7.8732    0.4568   -7.8792    0.4669   -0.0000  -47.9986
  8.700   -7.8391    0.4245   -7.9206    0.4435   -7.8449    0.4481   -7.8590    0.4015   -7.8412    0.4566   -7.8472    0.4666   -0.0000  -47.9986
  8.710   -7.8065    0.4244   -7.8895    0.4428   -7.8123    0.4479   -7.8266    0.4009   -7.8092    0.4564   -7.8151    0.4664   -0.0000  -47.9986
  8.720   -7.7739    0.4244   -7.8585    0.4421   -7.7796    0.4478   -7.7942    0.4004   -7.7772    0.4563   -7.7831    0.4662   -0.0000  -47.9986
  8.730   -7.7413    0.4245   -7.8274    0.4414   -7.7469    0.4477   -7.7617    0.3999   -7.7451    0.4563   -7.7510    0.4661   -0.0000  -47.9986
  8.740   -7.7086    0.4246   -7.7964    0.4408   -7.7141    0.4477   -7.7292    0.3995   -7.7130    0.4563   -7.7189    0.4662   -0.0000  -47.9986
  8.750   -7.6758    0.4249   -7.7654    0.4403   -7.6813    0.4478   -7.6966    0.3992   -7.6809    0.4565   -7.6867    0.4662   -0.0001  -47.9986
  8.760   -7.6429    0.4252   -7.7344    0.4397   -7.6484    0.4479   -7.6639    0.3989   -7.6487    0.4567   -7.6545    0.4664   -0.0001  -47.9986
  8.770   -7.6100    0.4256   -7.7033    0.4393   -7.6153    0.4482   -7.6311    0.3987   -7.6164    0.4571   -7.6222    0.4667   -0.0002  -47.9986
  8.780   -7.5769    0.4261   -7.6722    0.4389   -7.5822    0.4485   -7.5982    0.3985   -7.5841    0.4575   -7.5899    0.4671   -0.0004  -47.9986
  8.790   -7.5438    0.4267   -7.6412    0.4386   -7.5490    0.4490   -7.5653    0.3985   -7.5517    0.4580   -7.5574    0.4675   -0.0007  -47.9986
  8.800   -7.5105    0.4275   -7.6101    0.4383   -7.5156    0.4496   -7.5322    0.3985   -7.5192    0.4586   -7.5249    0.4681   -0.0013  -47.9986
  8.810   -7.4771    0.4283   -7.5789    0.4381   -7.4821    0.4502   -7.4990    0.3985   -7.4866    0.4594   -7.4923    0.4688   -0.0023  -47.9986
  8.820   -7.4436    0.4293   -7.5477    0.4379   -7.4485    0.4510   -7.4657    0.3987   -7.4538    0.4603   -7.4596    0.4696   -0.0039  -47.9986
  8.830   -7.4099    0.4304   -7.5165    0.4378   -7.4147    0.4520   -7.4322    0.3990   -7.4210    0.4613   -7.4267    0.4706   -0.0067  -47.9986
  8.840   -7.3760    0.4317   -7.4852    0.4378   -7.3807    0.4530   -7.3985    0.3993   -7.3880    0.4624   -7.3937    0.4717   -0.0114  -47.9986
  8.850   -7.3420    0.4331   -7.4539    0.4379   -7.3465    0.4542   -7.3647    0.3998   -7.3549    0.4637   -7.3606    0.4729   -0.0190  -47.9986
  8.860   -7.3077    0.4346   -7.4224    0.4381   -7.3121    0.4556   -7.3306    0.4003   -7.3217    0.4651   -7.3273    0.4743   -0.0313  -47.9986
  8.870   -7.2732    0.4364   -7.3909    0.4383   -7.2775    0.4571   -7.2964    0.4010   -7.2882    0.4667   -7.2938    0.4758   -0.0511  -47.9986
  8.880   -7.2385    0.4383   -7.3594    0.4386   -7.2426    0.4588   -7.2619    0.4018   -7.2546    0.4685   -7.2602    0.4776   -0.0824  -47.9987
  8.890   -7.2036    0.4404   -7.3277    0.4390   -7.2075    0.4607   -7.2271    0.4028   -7.2208    0.4705   -7.2263    0.4795   -0.1316  -47.9987
  8.900   -7.1683    0.4428   -7.2959    0.4396   -7.1721    0.4628   -7.1921    0.4038   -7.1867    0.4726   -7.1923    0.4816   -0.2079  -47.9988
  8.910   -7.1328    0.4453   -7.2639    0.4402   -7.1363    0.4651   -7.1568    0.4051   -7.1524    0.4750   -7.1580    0.4839   -0.3250  -47.9989
  8.920   -7.0969    0.4481   -7.2319    0.4409   -7.1003    0.4676   -7.1212    0.4065   -7.1179    0.4776   -7.1234    0.4865   -0.5028  -47.9991
  8.930   -7.0607    0.4512   -7.1997    0.4418   -7.0639    0.4704   -7.0852    0.4080   -7.0831    0.4805   -7.0886    0.4893   -0.7696  -47.9994
  8.940   -7.0242    0.4545   -7.1673    0.4428   -7.0270    0.4735   -7.0489    0.4098   -7.0480    0.4836   -7.0535    0.4924   -1.1654  -47.9998
  8.950   -6.9872    0.4582   -7.1348    0.4439   -6.9898    0.4769   -7.0121    0.4118   -7.0125    0.4870   -7.0180    0.4957   -1.7454  -48.0005
  8.960   -6.9498    0.4622   -7.1021    0.4451   -6.9521    0.4806   -6.9749    0.4140   -6.9768    0.4907   -6.9823    0.4994   -2.5847  -48.0014
  8.970   -6.9120    0.4666   -7.0692    0.4465   -6.9140    0.4846   -6.9373    0.4165   -6.9406    0.4948   -6.9461    0.5034   -3.7833  -48.0028
  8.980   -6.8737    0.4713   -7.0361    0.4481   -6.8753    0.4890   -6.8991    0.4192   -6.9041    0.4992   -6.9096    0.5078   -5.4713  -48.0048
  8.990   -6.8348    0.4765   -7.0027    0.4499   -6.8360    0.4938   -6.8604    0.4222   -6.8672    0.5040   -6.8726    0.5126   -7.8137  -48.0077
  9.000   -6.7954    0.4822   -6.9691    0.4518   -6.7962    0.4991   -6.8211    0.4255   -6.8298    0.5092   -6.8352    0.5178  -11.0146  -48.0117
  9.010   -6.7553    0.4883   -6.9353    0.4539   -6.7557    0.5049   -6.7812    0.4292   -6.7919    0.5150   -6.7973    0.5235  -15.3185  -48.0174
  9.020   -6.7146    0.4951   -6.9011    0.4562   -6.7144    0.5112   -6.7406    0.4333   -6.7535    0.5212   -6.7589    0.5296  -21.0082  -48.0251
  9.030   -6.6732    0.5024   -6.8666    0.4588   -6.6725    0.5181   -6.6992    0.4378   -6.7145    0.5280   -6.7200    0.5364  -28.3982  -48.0355
  9.040   -6.6311    0.5105   -6.8318    0.4616   -6.6297    0.5257   -6.6570    0.4428   -6.6750    0.5354   -6.6804    0.5437  -37.8217  -48.0494
  9.050   -6.5881    0.5193   -6.7966    0.4646   -6.5860    0.5340   -6.6140    0.4482   -6.6348    0.5435   -6.6402    0.5518  -49.6106  -48.0676
  9.060   -6.5443    0.5289   -6.7611    0.4680   -6.5414    0.5431   -6.5699    0.4543   -6.5939    0.5523   -6.5993    0.5606  -64.0692  -48.0912
  9.070   -6.4995    0.5395   -6.7251    0.4716   -6.4957    0.5532   -6.5249    0.4610   -6.5523    0.5619   -6.5577    0.5702  -81.4416  -48.1211
  9.080   -6.4537    0.5511   -6.6887    0.4756   -6.4489    0.5642   -6.4787    0.4685   -6.5099    0.5725   -6.5153    0.5807 -101.8766  -48.1586
  9.090   -6.4069    0.5638   -6.6518    0.4800   -6.4009    0.5763   -6.4313    0.4767   -6.4667    0.5840   -6.4721    0.5922 -125.3915  -48.2046
  9.100   -6.3589    0.5778   -6.6144    0.4847   -6.3516    0.5897   -6.3826    0.4859   -6.4226    0.5967   -6.4280    0.6049 -151.8419  -48.2604
  9.110   -6.3096    0.5933   -6.5765    0.4899   -6.3009    0.6046   -6.3325    0.4961   -6.3776    0.6107   -6.3830    0.6188 -180.9010  -48.3269
  9.120   -6.2590    0.6104   -6.5379    0.4955   -6.2487    0.6210   -6.2807    0.5074   -6.3316    0.6260   -6.3369    0.6341 -212.0536  -48.4048
  9.130   -6.2070    0.6293   -6.4987    0.5017   -6.1948    0.6392   -6.2273    0.5201   -6.2845    0.6430   -6.2898    0.6510 -244.6092  -48.4947
  9.140   -6.1535    0.6503   -6.4588    0.5084   -6.1392    0.6595   -6.1719    0.5343   -6.2362    0.6617   -6.2416    0.6697 -277.7355  -48.5968
  9.150   -6.0984    0.6736   -6.4182    0.5157   -6.0816    0.6822   -6.1145    0.5503   -6.1868    0.6823   -6.1922    0.6903 -310.5123  -48.7109
  9.160   -6.0416    0.6996   -6.3768    0.5236   -6.0219    0.7075   -6.0549    0.5682   -6.1362    0.7053   -6.1416    0.7132 -342.0029  -48.8366
  9.170   -5.9829    0.7286   -6.3346    0.5323   -5.9600    0.7360   -5.9928    0.5885   -6.0843    0.7308   -6.0897    0.7387 -371.3361  -48.9731
  9.180   -5.9224    0.7611   -6.2914    0.5419   -5.8957    0.7680   -5.9280    0.6115   -6.0310    0.7592   -6.0365    0.7671 -397.7930  -49.1192
  9.190   -5.8600    0.7977   -6.2472    0.5523   -5.8289    0.8043   -5.8603    0.6377   -5.9765    0.7910   -5.9819    0.7988 -420.8894  -49.2739
  9.200   -5.7955    0.8388   -6.2020    0.5637   -5.7593    0.8454   -5.7894    0.6675   -5.9206    0.8265   -5.9261    0.8343 -440.4463  -49.4358
  9.210   -5.7291    0.8853   -6.1556    0.5763   -5.6870    0.8922   -5.7150    0.7018   -5.8635    0.8664   -5.8690    0.8742 -456.6430  -49.6036
  9.220   -5.6608    0.9381   -6.1079    0.5901   -5.6117    0.9457   -5.6369    0.7413   -5.8052    0.9113   -5.8108    0.9191 -470.0505  -49.7763
  9.230   -5.5907    0.9980   -6.0589    0.6053   -5.5335    1.0071   -5.5548    0.7871   -5.7460    0.9620   -5.7516    0.9697 -481.6433  -49.9533
  9.240   -5.5191    1.0663   -6.0085    0.6220   -5.4525    1.0780   -5.4685    0.8404   -5.6863    1.0193   -5.6919    1.0270 -492.7944  -50.1344
  9.250   -5.4465    1.1443   -5.9564    0.6405   -5.3690    1.1602   -5.3778    0.9028   -5.6264    1.0843   -5.6320    1.0920 -505.2548  -50.3201
  9.260   -5.3737    1.2338   -5.9026    0.6610   -5.2836    1.2557   -5.2828    0.9763   -5.5671    1.1580   -5.5728    1.1657 -521.1202  -50.5116
  9.270   -5.3018    1.3365   -5.8470    0.6838   -5.1973    1.3674   -5.1837    1.0632   -5.5095    1.2418   -5.5153    1.2495 -542.7820  -50.7111
  9.280   -5.2326    1.4544   -5.7893    0.7092   -5.1119    1.4983   -5.0813    1.1666   -5.4551    1.3371   -5.4609    1.3447 -572.8526  -50.9216
  9.290   -5.1683    1.5900   -5.7294    0.7375   -5.0301    1.6522   -4.9770    1.2901   -5.4059    1.4451   -5.4117    1.4527 -614.0486  -51.1473
  9.300   -5.1126    1.7453   -5.6670    0.7693   -4.9561    1.8331   -4.8735    1.4380   -5.3647    1.5672   -5.3706    1.5748 -669.0066  -51.3931
  9.310   -5.0700    1.9226   -5.6020    0.8051   -4.8965    2.0454   -4.7749    1.6154   -5.3352    1.7044   -5.3412    1.7120 -740.0095  -51.6651
  9.320   -5.0470    2.1233   -5.5341    0.8456   -4.8606    2.2928   -4.6881    1.8273   -5.3224    1.8566   -5.3284    1.8642 -828.6121  -51.9696
  9.330   -5.0518    2.3473   -5.4630    0.8918   -4.8619    2.5771   -4.6235    2.0783   -5.3320    2.0227   -5.3382    2.0304 -935.1829  -52.3133
  9.340   -5.0947    2.5920   -5.3886    0.9449   -4.9180    2.8958   -4.5958    2.3707   -5.3709    2.1992   -5.3773    2.2070 *********  -52.7022
  9.350   -5.1873    2.8506   -5.3107    1.0064   -5.0501    3.2385   -4.6246    2.7008   -5.4459    2.3794   -5.4525    2.3871 *********  -53.1414
  9.360   -5.3404    3.1103   -5.2296    1.0783   -5.2794    3.5823   -4.7319    3.0556   -5.5621    2.5524   -5.5691    2.5602 *********  -53.6335
  9.370   -5.5612    3.3514   -5.1460    1.1630   -5.6188    3.8894   -4.9369    3.4079   -5.7205    2.7038   -5.7280    2.7115 *********  -54.1787
  9.380   -5.8482    3.5487   -5.0615    1.2632   -6.0615    4.1107   -5.2456    3.7175   -5.9149    2.8175   -5.9230    2.8250 *********  -54.7736
  9.390   -6.1869    3.6767   -4.9787    1.3815   -6.5721    4.1995   -5.6409    3.9397   -6.1309    2.8803   -6.1396    2.8873 *********  -55.4115
  9.400   -6.5505    3.7178   -4.9010    1.5200   -7.0902    4.1320   -6.0812    4.0422   -6.3479    2.8870   -6.3571    2.8934 *********  -56.0826
  9.410   -6.9059    3.6694   -4.8325    1.6802   -7.5500    3.9207   -6.5124    4.0204   -6.5450    2.8433   -6.5545    2.8488 *********  -56.7748
  9.420   -7.2241    3.5448   -4.7776    1.8634   -7.9046    3.6091   -6.8893    3.8981   -6.7072    2.7637   -6.7168    2.7683 *********  -57.4750
  9.430   -7.4869    3.3666   -4.7418    2.0704   -8.1377    3.2520   -7.1883    3.7142   -6.8287    2.6666   -6.8382    2.6702 *********  -58.1703
  9.440   -7.6893    3.1592   -4.7320    2.3018   -8.2596    2.8965   -7.4091    3.5072   -6.9122    2.5690   -6.9213    2.5717 *********  -58.8491
  9.450   -7.8354    2.9431   -4.7571    2.5563   -8.2943    2.5733   -7.5658    3.3044   -6.9662    2.4833   -6.9748    2.4853 *********  -59.5022
  9.460   -7.9346    2.7323   -4.8280    2.8298   -8.2688    2.2975   -7.6778    3.1205   -7.0021    2.4170   -7.0101    2.4183 *********  -60.1226
  9.470   -7.9981    2.5344   -4.9567    3.1136   -8.2073    2.0728   -7.7642    2.9591   -7.0321    2.3719   -7.0394    2.3727 *********  -60.7061
  9.480   -8.0360    2.3522   -5.1538    3.3921   -8.1288    1.8961   -7.8398    2.8165   -7.0678    2.3451   -7.0744    2.3455 *********  -61.2502
  9.490   -8.0565    2.1849   -5.4249    3.6432   -8.0479    1.7601   -7.9138    2.6842   -7.1180    2.3293   -7.1237    2.3294 *********  -61.7541
  9.500   -8.0649    2.0299   -5.7660    3.8397   -7.9739    1.6556   -7.9893    2.5524   -7.1872    2.3136   -7.1921    2.3136 *********  -62.2181
  9.510   -8.0637    1.8839   -6.1601    3.9554   -7.9122    1.5725   -8.0634    2.4124   -7.2744    2.2866   -7.2785    2.2866 *********  -62.6430
  9.520   -8.0535    1.7448   -6.5778    3.9727   -7.8638    1.5013   -8.1293    2.2594   -7.3729    2.2385   -7.3762    2.2387 *********  -63.0297
  9.530   -8.0336    1.6115   -6.9840    3.8884   -7.8261    1.4343   -8.1786    2.0938   -7.4719    2.1646   -7.4745    2.1651 -952.4137  -63.3797
  9.540   -8.0035    1.4849   -7.3459    3.7156   -7.7950    1.3671   -8.2052    1.9209   -7.5605    2.0660   -7.5626    2.0670 -856.7031  -63.6945
  9.550   -7.9636    1.3662   -7.6417    3.4786   -7.7659    1.2979   -8.2066    1.7478   -7.6303    1.9486   -7.6319    1.9500 -765.8934  -63.9760
  9.560   -7.9151    1.2569   -7.8629    3.2054   -7.7353    1.2274   -8.1840    1.5820   -7.6769    1.8205   -7.6783    1.8224 -680.6908  -64.2261
  9.570   -7.8599    1.1580   -8.0121    2.9207   -7.7012    1.1571   -8.1415    1.4287   -7.7003    1.6897   -7.7015    1.6921 -601.7664  -64.4473
  9.580   -7.8002    1.0695   -8.0991    2.6430   -7.6629    1.0889   -8.0840    1.2909   -7.7027    1.5624   -7.7038    1.5652 -529.6543  -64.6419
  9.590   -7.7378    0.9912   -8.1362    2.3837   -7.6208    1.0241   -8.0164    1.1694   -7.6880    1.4427   -7.6891    1.4459 -464.6701  -64.8127
  9.600   -7.6743    0.9222   -8.1358    2.1485   -7.5755    0.9636   -7.9428    1.0637   -7.6602    1.3328   -7.6613    1.3363 -406.8677  -64.9622
  9.610   -7.6109    0.8616   -8.1083    1.9392   -7.5280    0.9079   -7.8665    0.9724   -7.6228    1.2335   -7.6239    1.2372 -356.0388  -65.0931
  9.620   -7.5483    0.8082   -8.0621    1.7551   -7.4790    0.8571   -7.7895    0.8939   -7.5788    1.1446   -7.5800    1.1486 -311.7491  -65.2076
  9.630   -7.4872    0.7613   -8.0037    1.5943   -7.4293    0.8110   -7.7135    0.8263   -7.5305    1.0655   -7.5318    1.0697 -273.3967  -65.3081
  9.640   -7.4277    0.7198   -7.9378    1.4543   -7.3795    0.7693   -7.6394    0.7680   -7.4797    0.9953   -7.4811    0.9996 -240.2812  -65.3964
  9.650   -7.3702    0.6830   -7.8677    1.3326   -7.3300    0.7317   -7.5677    0.7176   -7.4276    0.9330   -7.4290    0.9375 -211.6706  -65.4742
  9.660   -7.3146    0.6503   -7.7957    1.2266   -7.2812    0.6976   -7.4987    0.6739   -7.3752    0.8778   -7.3767    0.8824 -186.8579  -65.5429
  9.670   -7.2609    0.6211   -7.7235    1.1343   -7.2331    0.6669   -7.4325    0.6358   -7.3230    0.8287   -7.3246    0.8334 -165.2013  -65.6036
  9.680   -7.2092    0.5949   -7.6520    1.0535   -7.1861    0.6390   -7.3692    0.6025   -7.2715    0.7849   -7.2731    0.7897 -146.1488  -65.6573
  9.690   -7.1593    0.5713   -7.5820    0.9827   -7.1401    0.6138   -7.3086    0.5731   -7.2210    0.7458   -7.2227    0.7507 -129.2470  -65.7048
  9.700   -7.1111    0.5500   -7.5140    0.9204   -7.0953    0.5908   -7.2506    0.5471   -7.1716    0.7108   -7.1734    0.7157 -114.1389  -65.7467
  9.710   -7.0646    0.5307   -7.4481    0.8653   -7.0516    0.5699   -7.1951    0.5241   -7.1235    0.6793   -7.1253    0.6842 -100.5526  -65.7837
  9.720   -7.0197    0.5130   -7.3845    0.8165   -7.0091    0.5508   -7.1419    0.5035   -7.0766    0.6509   -7.0785    0.6559  -88.2870  -65.8161
  9.730   -6.9762    0.4970   -7.3231    0.7732   -6.9676    0.5334   -7.0908    0.4851   -7.0311    0.6252   -7.0330    0.6302  -77.1954  -65.8445
  9.740   -6.9342    0.4822   -7.2641    0.7344   -6.9273    0.5173   -7.0418    0.4685   -6.9869    0.6019   -6.9888    0.6069  -67.1704  -65.8692
  9.750   -6.8934    0.4687   -7.2073    0.6997   -6.8880    0.5026   -6.9947    0.4535   -6.9439    0.5806   -6.9459    0.5857  -58.1312  -65.8905
  9.760   -6.8539    0.4562   -7.1526    0.6685   -6.8497    0.4890   -6.9493    0.4398   -6.9021    0.5613   -6.9041    0.5663  -50.0130  -65.9089
  9.770   -6.8155    0.4447   -7.0999    0.6404   -6.8124    0.4764   -6.9055    0.4274   -6.8615    0.5435   -6.8636    0.5486  -42.7599  -65.9246
  9.780   -6.7782    0.4340   -7.0491    0.6149   -6.7761    0.4648   -6.8632    0.4161   -6.8221    0.5272   -6.8242    0.5323  -36.3195  -65.9380
  9.790   -6.7419    0.4241   -7.0002    0.5918   -6.7406    0.4540   -6.8224    0.4057   -6.7837    0.5122   -6.7858    0.5173  -30.6399  -65.9492
  9.800   -6.7065    0.4149   -6.9530    0.5707   -6.7059    0.4439   -6.7828    0.3962   -6.7463    0.4984   -6.7485    0.5034  -25.6682  -65.9587
  9.810   -6.6721    0.4063   -6.9075    0.5515   -6.6721    0.4346   -6.7445    0.3873   -6.7099    0.4856   -6.7121    0.4906  -21.3498  -65.9665
  9.820   -6.6385    0.3982   -6.8634    0.5339   -6.6390    0.4258   -6.7073    0.3792   -6.6745    0.4737   -6.6766    0.4788  -17.6292  -65.9730
  9.830   -6.6057    0.3907   -6.8208    0.5178   -6.6067    0.4176   -6.6711    0.3716   -6.6399    0.4627   -6.6421    0.4677  -14.4498  -65.9783
  9.840   -6.5736    0.3836   -6.7795    0.5029   -6.5750    0.4099   -6.6359    0.3646   -6.6061    0.4524   -6.6083    0.4574  -11.7556  -65.9826
  9.850   -6.5422    0.3769   -6.7395    0.4892   -6.5440    0.4027   -6.6017    0.3580   -6.5731    0.4428   -6.5753    0.4478   -9.4920  -65.9861
  9.860   -6.5115    0.3706   -6.7007    0.4765   -6.5136    0.3959   -6.5684    0.3519   -6.5409    0.4338   -6.5431    0.4389   -7.6063  -65.9889
  9.870   -6.4815    0.3647   -6.6629    0.4648   -6.4839    0.3895   -6.5358    0.3462   -6.5093    0.4254   -6.5116    0.4304   -6.0489  -65.9911
  9.880   -6.4520    0.3591   -6.6263    0.4538   -6.4546    0.3835   -6.5040    0.3408   -6.4785    0.4175   -6.4807    0.4225   -4.7735  -65.9929
  9.890   -6.4231    0.3538   -6.5906    0.4437   -6.4260    0.3777   -6.4730    0.3357   -6.4483    0.4101   -6.4505    0.4151   -3.7382  -65.9943
  9.900   -6.3948    0.3488   -6.5558    0.4342   -6.3978    0.3723   -6.4426    0.3309   -6.4187    0.4031   -6.4209    0.4081   -2.9049  -65.9953
  9.910   -6.3670    0.3440   -6.5219    0.4253   -6.3702    0.3672   -6.4129    0.3264   -6.3896    0.3965   -6.3919    0.4015   -2.2399  -65.9961
  9.920   -6.3396    0.3395   -6.4889    0.4170   -6.3430    0.3623   -6.3838    0.3221   -6.3611    0.3903   -6.3634    0.3953   -1.7138  -65.9968
  9.930   -6.3128    0.3352   -6.4566    0.4092   -6.3163    0.3577   -6.3553    0.3181   -6.3332    0.3844   -6.3355    0.3893   -1.3012  -65.9973
  9.940   -6.2864    0.3310   -6.4251    0.4019   -6.2900    0.3532   -6.3273    0.3143   -6.3057    0.3788   -6.3080    0.3837   -0.9802  -65.9976
  9.950   -6.2604    0.3271   -6.3942    0.3950   -6.2641    0.3490   -6.2998    0.3106   -6.2787    0.3735   -6.2810    0.3784   -0.7327  -65.9979
  9.960   -6.2348    0.3233   -6.3640    0.3885   -6.2386    0.3450   -6.2728    0.3071   -6.2522    0.3684   -6.2545    0.3734   -0.5434  -65.9981
  9.970   -6.2096    0.3198   -6.3345    0.3824   -6.2135    0.3411   -6.2463    0.3038   -6.2261    0.3636   -6.2284    0.3685   -0.3999  -65.9982
  9.980   -6.1847    0.3163   -6.3055    0.3766   -6.1887    0.3375   -6.2203    0.3007   -6.2004    0.3590   -6.2027    0.3639   -0.2920  -65.9983
  9.990   -6.1603    0.3130   -6.2771    0.3711   -6.1643    0.3339   -6.1946    0.2976   -6.1751    0.3547   -6.1775    0.3596   -0.2116  -65.9984
 10.000   -6.1361    0.3098   -6.2493    0.3659   -6.1403    0.3305   -6.1694    0.2947   -6.1502    0.3505   -6.1525    0.3554   -0.1521  -65.9984
