# Macroscopic dielectric function obtained with the BS equation.
#  RPA L0 with KS energies and KS wavefunctions     LOCAL FIELD EFFECTS INCLUDED
# RESONANT-ONLY calculation
# Coulomb term constructed with full W(G1,G2)
# Scissor operator energy =  0.8000 [eV]
# nstates included in the diagonalization = 96
# npweps  = 113
# npwwfn  = 259
# nbands  = 8
# loband  = 2
# nkibz   = 3
# nkbz    = 8
# Lorentzian broadening =  0.0000 [eV]
# List of q-points for the optical limit:
# q =  0.938821, 0.000000, 0.000000, [Reduced coords] 
# q =  0.000000, 0.938821, 0.000000, [Reduced coords] 
# q =  0.000000, 0.000000, 0.938821, [Reduced coords] 
# q =  0.000000, 0.813043, 0.813043, [Reduced coords] 
# q =  0.813043, 0.000000, 0.813043, [Reduced coords] 
# q =  0.813043, 0.813043, 0.000000, [Reduced coords] 
# omega [eV]    RE(eps(q=1)) IM(eps(q=1) RE(eps(q=2) ) ... DOS   IDOS
  0.000   55.7355    0.2853   55.6898    0.3544   55.6975    0.3535   55.7107    0.2673   55.7961    0.3415   55.7923    0.3498   -0.0000   -0.0000
  0.010   55.7360    0.2922   55.6903    0.3616   55.6980    0.3606   55.7112    0.2744   55.7966    0.3488   55.7928    0.3571   -0.0000   -0.0000
  0.020   55.7377    0.2992   55.6920    0.3688   55.6997    0.3678   55.7129    0.2814   55.7982    0.3562   55.7944    0.3645   -0.0000   -0.0000
  0.030   55.7406    0.3062   55.6947    0.3759   55.7025    0.3750   55.7157    0.2885   55.8010    0.3636   55.7972    0.3718   -0.0000   -0.0000
  0.040   55.7445    0.3132   55.6986    0.3832   55.7064    0.3822   55.7197    0.2956   55.8049    0.3710   55.8011    0.3792   -0.0000   -0.0000
  0.050   55.7496    0.3203   55.7036    0.3904   55.7114    0.3894   55.7247    0.3027   55.8100    0.3784   55.8062    0.3866   -0.0000   -0.0000
  0.060   55.7558    0.3273   55.7097    0.3976   55.7175    0.3966   55.7309    0.3098   55.8161    0.3858   55.8123    0.3941   -0.0000   -0.0000
  0.070   55.7631    0.3344   55.7170    0.4049   55.7248    0.4039   55.7383    0.3169   55.8234    0.3933   55.8196    0.4015   -0.0000   -0.0000
  0.080   55.7716    0.3415   55.7254    0.4122   55.7332    0.4112   55.7467    0.3241   55.8319    0.4008   55.8281    0.4090   -0.0000   -0.0000
  0.090   55.7811    0.3486   55.7349    0.4196   55.7428    0.4185   55.7563    0.3313   55.8415    0.4083   55.8376    0.4165   -0.0000   -0.0000
  0.100   55.7919    0.3557   55.7455    0.4269   55.7534    0.4259   55.7670    0.3385   55.8522    0.4158   55.8484    0.4240   -0.0000   -0.0000
  0.110   55.8037    0.3629   55.7573    0.4343   55.7652    0.4332   55.7789    0.3457   55.8640    0.4234   55.8602    0.4316   -0.0000   -0.0000
  0.120   55.8167    0.3701   55.7702    0.4417   55.7781    0.4406   55.7919    0.3530   55.8770    0.4310   55.8732    0.4392   -0.0000   -0.0000
  0.130   55.8308    0.3773   55.7842    0.4492   55.7922    0.4481   55.8060    0.3603   55.8911    0.4386   55.8873    0.4468   -0.0000   -0.0000
  0.140   55.8461    0.3846   55.7994    0.4567   55.8074    0.4556   55.8212    0.3676   55.9064    0.4463   55.9026    0.4545   -0.0000   -0.0000
  0.150   55.8625    0.3919   55.8157    0.4642   55.8237    0.4631   55.8376    0.3749   55.9228    0.4540   55.9190    0.4622   -0.0000   -0.0000
  0.160   55.8800    0.3992   55.8332    0.4717   55.8412    0.4706   55.8552    0.3823   55.9403    0.4617   55.9365    0.4699   -0.0000   -0.0000
  0.170   55.8987    0.4065   55.8518    0.4793   55.8598    0.4782   55.8738    0.3897   55.9590    0.4695   55.9552    0.4776   -0.0000   -0.0000
  0.180   55.9186    0.4139   55.8715    0.4869   55.8796    0.4858   55.8937    0.3971   55.9789    0.4773   55.9751    0.4854   -0.0000   -0.0000
  0.190   55.9396    0.4213   55.8924    0.4946   55.9005    0.4934   55.9146    0.4046   55.9999    0.4851   55.9961    0.4932   -0.0000   -0.0000
  0.200   55.9617    0.4287   55.9144    0.5023   55.9225    0.5011   55.9368    0.4121   56.0220    0.4930   56.0182    0.5011   -0.0000   -0.0000
  0.210   55.9850    0.4362   55.9376    0.5100   55.9457    0.5088   55.9601    0.4196   56.0453    0.5009   56.0415    0.5090   -0.0000   -0.0000
  0.220   56.0094    0.4437   55.9620    0.5178   55.9701    0.5166   55.9845    0.4272   56.0698    0.5089   56.0660    0.5170   -0.0000   -0.0000
  0.230   56.0350    0.4512   55.9875    0.5256   55.9956    0.5243   56.0101    0.4348   56.0954    0.5169   56.0916    0.5249   -0.0000   -0.0000
  0.240   56.0618    0.4588   56.0141    0.5334   56.0223    0.5322   56.0369    0.4424   56.1222    0.5249   56.1184    0.5330   -0.0000   -0.0000
  0.250   56.0898    0.4664   56.0419    0.5413   56.0501    0.5401   56.0648    0.4501   56.1502    0.5330   56.1464    0.5410   -0.0000   -0.0000
  0.260   56.1189    0.4741   56.0709    0.5492   56.0792    0.5480   56.0939    0.4578   56.1794    0.5411   56.1756    0.5491   -0.0000   -0.0000
  0.270   56.1492    0.4818   56.1011    0.5572   56.1093    0.5560   56.1242    0.4655   56.2097    0.5492   56.2059    0.5573   -0.0000   -0.0000
  0.280   56.1806    0.4895   56.1325    0.5652   56.1407    0.5640   56.1556    0.4733   56.2412    0.5575   56.2374    0.5655   -0.0000   -0.0000
  0.290   56.2133    0.4973   56.1650    0.5733   56.1733    0.5720   56.1883    0.4812   56.2739    0.5657   56.2701    0.5738   -0.0000   -0.0000
  0.300   56.2471    0.5051   56.1987    0.5814   56.2070    0.5801   56.2221    0.4890   56.3078    0.5740   56.3040    0.5821   -0.0000   -0.0000
  0.310   56.2822    0.5130   56.2336    0.5896   56.2419    0.5883   56.2571    0.4970   56.3429    0.5824   56.3391    0.5904   -0.0000   -0.0000
  0.320   56.3184    0.5209   56.2697    0.5978   56.2780    0.5965   56.2933    0.5049   56.3792    0.5908   56.3754    0.5988   -0.0000   -0.0000
  0.330   56.3558    0.5289   56.3070    0.6061   56.3153    0.6048   56.3307    0.5130   56.4167    0.5992   56.4129    0.6072   -0.0000   -0.0000
  0.340   56.3945    0.5369   56.3455    0.6144   56.3539    0.6131   56.3694    0.5210   56.4554    0.6077   56.4516    0.6158   -0.0000   -0.0000
  0.350   56.4343    0.5450   56.3852    0.6228   56.3936    0.6214   56.4092    0.5291   56.4953    0.6163   56.4915    0.6243   -0.0000   -0.0000
  0.360   56.4754    0.5531   56.4261    0.6312   56.4345    0.6299   56.4502    0.5373   56.5365    0.6249   56.5327    0.6329   -0.0000   -0.0000
  0.370   56.5177    0.5612   56.4682    0.6397   56.4767    0.6383   56.4925    0.5455   56.5788    0.6336   56.5750    0.6416   -0.0000   -0.0000
  0.380   56.5612    0.5695   56.5116    0.6483   56.5201    0.6469   56.5360    0.5538   56.6224    0.6423   56.6186    0.6503   -0.0000   -0.0000
  0.390   56.6059    0.5777   56.5562    0.6569   56.5647    0.6555   56.5807    0.5621   56.6673    0.6511   56.6635    0.6591   -0.0000   -0.0000
  0.400   56.6519    0.5861   56.6020    0.6655   56.6106    0.6641   56.6267    0.5705   56.7134    0.6600   56.7095    0.6680   -0.0000   -0.0000
  0.410   56.6992    0.5944   56.6491    0.6743   56.6577    0.6728   56.6739    0.5789   56.7607    0.6689   56.7569    0.6769   -0.0000   -0.0000
  0.420   56.7477    0.6029   56.6974    0.6831   56.7060    0.6816   56.7224    0.5874   56.8093    0.6779   56.8055    0.6858   -0.0000   -0.0000
  0.430   56.7974    0.6114   56.7470    0.6919   56.7556    0.6905   56.7721    0.5960   56.8591    0.6869   56.8553    0.6949   -0.0000   -0.0000
  0.440   56.8484    0.6200   56.7978    0.7008   56.8065    0.6994   56.8231    0.6046   56.9103    0.6960   56.9064    0.7040   -0.0000   -0.0000
  0.450   56.9007    0.6286   56.8499    0.7098   56.8586    0.7083   56.8754    0.6132   56.9627    0.7052   56.9588    0.7132   -0.0000   -0.0000
  0.460   56.9543    0.6373   56.9033    0.7189   56.9120    0.7174   56.9289    0.6220   57.0163    0.7145   57.0125    0.7224   -0.0000   -0.0000
  0.470   57.0091    0.6460   56.9580    0.7280   56.9667    0.7265   56.9837    0.6308   57.0713    0.7238   57.0675    0.7317   -0.0000   -0.0000
  0.480   57.0653    0.6548   57.0139    0.7372   57.0227    0.7357   57.0399    0.6396   57.1276    0.7332   57.1237    0.7411   -0.0000   -0.0000
  0.490   57.1227    0.6637   57.0712    0.7464   57.0800    0.7449   57.0973    0.6486   57.1852    0.7426   57.1813    0.7506   -0.0000   -0.0000
  0.500   57.1815    0.6727   57.1298    0.7558   57.1386    0.7543   57.1560    0.6576   57.2440    0.7522   57.2402    0.7601   -0.0000   -0.0000
  0.510   57.2416    0.6817   57.1896    0.7652   57.1985    0.7637   57.2161    0.6666   57.3043    0.7618   57.3004    0.7697   -0.0000   -0.0000
  0.520   57.3030    0.6908   57.2509    0.7747   57.2598    0.7731   57.2775    0.6758   57.3658    0.7715   57.3620    0.7794   -0.0000   -0.0000
  0.530   57.3657    0.7000   57.3134    0.7843   57.3223    0.7827   57.3402    0.6850   57.4287    0.7813   57.4248    0.7892   -0.0000   -0.0000
  0.540   57.4298    0.7092   57.3773    0.7939   57.3862    0.7923   57.4042    0.6943   57.4929    0.7911   57.4891    0.7990   -0.0000   -0.0000
  0.550   57.4952    0.7185   57.4425    0.8037   57.4515    0.8021   57.4697    0.7036   57.5585    0.8010   57.5547    0.8089   -0.0000   -0.0000
  0.560   57.5620    0.7279   57.5091    0.8135   57.5181    0.8119   57.5364    0.7131   57.6255    0.8111   57.6216    0.8190   -0.0000   -0.0000
  0.570   57.6302    0.7374   57.5770    0.8234   57.5861    0.8218   57.6046    0.7226   57.6938    0.8212   57.6899    0.8291   -0.0000   -0.0000
  0.580   57.6998    0.7470   57.6464    0.8334   57.6555    0.8317   57.6741    0.7322   57.7635    0.8314   57.7597    0.8392   -0.0000   -0.0000
  0.590   57.7707    0.7566   57.7171    0.8434   57.7262    0.8418   57.7450    0.7419   57.8346    0.8416   57.8308    0.8495   -0.0000   -0.0000
  0.600   57.8431    0.7663   57.7892    0.8536   57.7984    0.8520   57.8173    0.7517   57.9072    0.8520   57.9033    0.8599   -0.0000   -0.0000
  0.610   57.9168    0.7762   57.8627    0.8639   57.8719    0.8622   57.8911    0.7615   57.9811    0.8625   57.9772    0.8704   -0.0000   -0.0000
  0.620   57.9920    0.7861   57.9377    0.8742   57.9469    0.8725   57.9662    0.7714   58.0565    0.8731   58.0526    0.8809   -0.0000   -0.0000
  0.630   58.0686    0.7960   58.0141    0.8847   58.0233    0.8830   58.0428    0.7815   58.1333    0.8837   58.1294    0.8916   -0.0000   -0.0000
  0.640   58.1467    0.8061   58.0919    0.8952   58.1012    0.8935   58.1208    0.7916   58.2115    0.8945   58.2076    0.9023   -0.0000   -0.0000
  0.650   58.2262    0.8163   58.1711    0.9058   58.1805    0.9042   58.2003    0.8018   58.2912    0.9053   58.2873    0.9132   -0.0000   -0.0000
  0.660   58.3072    0.8266   58.2519    0.9166   58.2612    0.9149   58.2813    0.8121   58.3724    0.9163   58.3685    0.9241   -0.0000   -0.0000
  0.670   58.3897    0.8369   58.3341    0.9274   58.3435    0.9257   58.3637    0.8225   58.4551    0.9274   58.4512    0.9352   -0.0000   -0.0000
  0.680   58.4736    0.8474   58.4178    0.9384   58.4272    0.9367   58.4476    0.8330   58.5393    0.9385   58.5353    0.9464   -0.0000   -0.0000
  0.690   58.5591    0.8580   58.5030    0.9495   58.5124    0.9477   58.5331    0.8436   58.6249    0.9498   58.6210    0.9577   -0.0000   -0.0000
  0.700   58.6461    0.8686   58.5897    0.9606   58.5992    0.9589   58.6200    0.8544   58.7121    0.9612   58.7082    0.9691   -0.0000   -0.0000
  0.710   58.7346    0.8794   58.6779    0.9719   58.6874    0.9701   58.7085    0.8652   58.8009    0.9727   58.7969    0.9806   -0.0000   -0.0000
  0.720   58.8246    0.8903   58.7677    0.9833   58.7772    0.9815   58.7985    0.8761   58.8911    0.9844   58.8872    0.9922   -0.0000   -0.0000
  0.730   58.9162    0.9013   58.8590    0.9948   58.8686    0.9930   58.8901    0.8871   58.9830    0.9961   58.9791    1.0039   -0.0000   -0.0000
  0.740   59.0094    0.9124   58.9519    1.0064   58.9615    1.0047   58.9832    0.8983   59.0764    1.0080   59.0725    1.0158   -0.0000   -0.0000
  0.750   59.1042    0.9236   59.0464    1.0182   59.0561    1.0164   59.0780    0.9095   59.1714    1.0199   59.1675    1.0278   -0.0000   -0.0000
  0.760   59.2006    0.9349   59.1424    1.0301   59.1522    1.0283   59.1743    0.9209   59.2680    1.0321   59.2641    1.0399   -0.0000   -0.0000
  0.770   59.2986    0.9464   59.2401    1.0421   59.2499    1.0402   59.2723    0.9324   59.3663    1.0443   59.3623    1.0521   -0.0000   -0.0000
  0.780   59.3982    0.9579   59.3394    1.0542   59.3492    1.0524   59.3718    0.9440   59.4662    1.0567   59.4622    1.0645   -0.0000   -0.0000
  0.790   59.4994    0.9696   59.4404    1.0664   59.4502    1.0646   59.4731    0.9557   59.5677    1.0692   59.5637    1.0770   -0.0000   -0.0000
  0.800   59.6024    0.9815   59.5430    1.0788   59.5528    1.0770   59.5759    0.9676   59.6709    1.0818   59.6669    1.0896   -0.0000   -0.0000
  0.810   59.7070    0.9934   59.6472    1.0914   59.6572    1.0895   59.6805    0.9796   59.7757    1.0946   59.7718    1.1024   -0.0000   -0.0000
  0.820   59.8132    1.0055   59.7532    1.1040   59.7632    1.1021   59.7868    0.9917   59.8823    1.1075   59.8784    1.1153   -0.0000   -0.0000
  0.830   59.9213    1.0177   59.8609    1.1168   59.8709    1.1149   59.8947    1.0039   59.9906    1.1205   59.9866    1.1283   -0.0000   -0.0000
  0.840   60.0310    1.0300   59.9703    1.1298   59.9803    1.1279   60.0044    1.0163   60.1006    1.1338   60.0967    1.1415   -0.0000   -0.0000
  0.850   60.1425    1.0425   60.0814    1.1429   60.0915    1.1410   60.1159    1.0288   60.2124    1.1471   60.2084    1.1549   -0.0000   -0.0000
  0.860   60.2557    1.0551   60.1943    1.1561   60.2044    1.1542   60.2291    1.0415   60.3260    1.1606   60.3220    1.1684   -0.0000   -0.0000
  0.870   60.3707    1.0679   60.3090    1.1695   60.3191    1.1676   60.3441    1.0543   60.4413    1.1743   60.4373    1.1821   -0.0000   -0.0000
  0.880   60.4876    1.0808   60.4254    1.1831   60.4357    1.1811   60.4608    1.0673   60.5585    1.1881   60.5545    1.1959   -0.0000   -0.0000
  0.890   60.6062    1.0939   60.5437    1.1968   60.5540    1.1948   60.5795    1.0804   60.6774    1.2021   60.6734    1.2098   -0.0000   -0.0000
  0.900   60.7267    1.1071   60.6638    1.2106   60.6742    1.2087   60.6999    1.0936   60.7983    1.2162   60.7943    1.2240   -0.0000   -0.0000
  0.910   60.8491    1.1205   60.7858    1.2247   60.7962    1.2227   60.8222    1.1070   60.9210    1.2305   60.9169    1.2383   -0.0000   -0.0000
  0.920   60.9733    1.1340   60.9097    1.2389   60.9201    1.2369   60.9464    1.1206   61.0455    1.2450   61.0415    1.2528   -0.0000   -0.0000
  0.930   61.0995    1.1477   61.0354    1.2532   61.0459    1.2513   61.0725    1.1343   61.1720    1.2597   61.1680    1.2674   -0.0000   -0.0000
  0.940   61.2275    1.1616   61.1631    1.2678   61.1736    1.2658   61.2005    1.1482   61.3004    1.2745   61.2964    1.2823   -0.0000   -0.0000
  0.950   61.3575    1.1756   61.2927    1.2825   61.3032    1.2805   61.3305    1.1623   61.4308    1.2895   61.4268    1.2973   -0.0000   -0.0000
  0.960   61.4895    1.1898   61.4242    1.2974   61.4348    1.2954   61.4625    1.1766   61.5632    1.3047   61.5591    1.3125   -0.0000   -0.0000
  0.970   61.6235    1.2042   61.5578    1.3125   61.5684    1.3105   61.5964    1.1910   61.6975    1.3201   61.6935    1.3279   -0.0000   -0.0000
  0.980   61.7595    1.2187   61.6934    1.3278   61.7040    1.3258   61.7323    1.2056   61.8339    1.3357   61.8298    1.3435   -0.0000   -0.0000
  0.990   61.8975    1.2335   61.8309    1.3433   61.8417    1.3412   61.8703    1.2204   61.9723    1.3515   61.9682    1.3592   -0.0000   -0.0000
  1.000   62.0376    1.2484   61.9706    1.3590   61.9814    1.3569   62.0104    1.2353   62.1128    1.3675   62.1087    1.3752   -0.0000   -0.0000
  1.010   62.1798    1.2635   62.1123    1.3748   62.1232    1.3728   62.1525    1.2505   62.2554    1.3837   62.2513    1.3914   -0.0000   -0.0000
  1.020   62.3241    1.2788   62.2562    1.3909   62.2671    1.3888   62.2967    1.2659   62.4001    1.4001   62.3960    1.4078   -0.0000   -0.0000
  1.030   62.4705    1.2943   62.4021    1.4072   62.4131    1.4051   62.4431    1.2814   62.5469    1.4167   62.5428    1.4244   -0.0000   -0.0000
  1.040   62.6191    1.3101   62.5503    1.4237   62.5613    1.4216   62.5917    1.2972   62.6959    1.4335   62.6919    1.4413   -0.0000   -0.0000
  1.050   62.7699    1.3260   62.7006    1.4405   62.7116    1.4383   62.7424    1.3131   62.8472    1.4506   62.8431    1.4583   -0.0000   -0.0000
  1.060   62.9229    1.3421   62.8531    1.4574   62.8642    1.4553   62.8954    1.3293   63.0006    1.4678   62.9965    1.4756   -0.0000   -0.0000
  1.070   63.0782    1.3585   63.0079    1.4746   63.0190    1.4724   63.0506    1.3457   63.1563    1.4854   63.1523    1.4931   -0.0000   -0.0000
  1.080   63.2357    1.3750   63.1649    1.4920   63.1761    1.4898   63.2081    1.3623   63.3143    1.5031   63.3102    1.5108   -0.0000   -0.0000
  1.090   63.3956    1.3918   63.3243    1.5096   63.3355    1.5075   63.3679    1.3792   63.4747    1.5211   63.4706    1.5288   -0.0000   -0.0000
  1.100   63.5578    1.4089   63.4859    1.5275   63.4973    1.5253   63.5301    1.3963   63.6373    1.5394   63.6332    1.5471   -0.0000   -0.0000
  1.110   63.7223    1.4261   63.6500    1.5456   63.6614    1.5435   63.6946    1.4136   63.8024    1.5578   63.7983    1.5656   -0.0000   -0.0000
  1.120   63.8893    1.4436   63.8164    1.5640   63.8278    1.5618   63.8615    1.4311   63.9698    1.5766   63.9657    1.5843   -0.0000   -0.0000
  1.130   64.0587    1.4614   63.9853    1.5827   63.9968    1.5805   64.0309    1.4489   64.1398    1.5956   64.1356    1.6033   -0.0000   -0.0000
  1.140   64.2306    1.4794   64.1566    1.6016   64.1681    1.5994   64.2027    1.4670   64.3121    1.6149   64.3080    1.6226   -0.0000   -0.0000
  1.150   64.4049    1.4976   64.3304    1.6208   64.3420    1.6186   64.3771    1.4853   64.4870    1.6345   64.4829    1.6422   -0.0000   -0.0000
  1.160   64.5818    1.5162   64.5067    1.6402   64.5184    1.6380   64.5539    1.5039   64.6645    1.6543   64.6603    1.6620   -0.0000   -0.0000
  1.170   64.7613    1.5350   64.6856    1.6600   64.6974    1.6577   64.7334    1.5227   64.8445    1.6744   64.8403    1.6822   -0.0000   -0.0000
  1.180   64.9434    1.5540   64.8671    1.6800   64.8789    1.6777   64.9154    1.5418   65.0271    1.6949   65.0230    1.7026   -0.0000   -0.0000
  1.190   65.1281    1.5734   65.0513    1.7003   65.0631    1.6981   65.1001    1.5612   65.2124    1.7156   65.2083    1.7233   -0.0000   -0.0000
  1.200   65.3156    1.5930   65.2381    1.7209   65.2500    1.7187   65.2875    1.5809   65.4004    1.7366   65.3963    1.7443   -0.0000   -0.0000
  1.210   65.5057    1.6129   65.4276    1.7419   65.4396    1.7396   65.4776    1.6009   65.5912    1.7580   65.5870    1.7657   -0.0000   -0.0000
  1.220   65.6986    1.6331   65.6199    1.7631   65.6319    1.7608   65.6705    1.6212   65.7847    1.7796   65.7805    1.7873   -0.0000   -0.0000
  1.230   65.8943    1.6537   65.8149    1.7847   65.8271    1.7824   65.8662    1.6418   65.9810    1.8016   65.9768    1.8093   -0.0000   -0.0000
  1.240   66.0929    1.6745   66.0129    1.8065   66.0250    1.8042   66.0647    1.6627   66.1801    1.8240   66.1760    1.8317   -0.0000   -0.0000
  1.250   66.2943    1.6957   66.2136    1.8288   66.2259    1.8265   66.2661    1.6839   66.3822    1.8466   66.3780    1.8543   -0.0000   -0.0000
  1.260   66.4987    1.7171   66.4173    1.8513   66.4297    1.8490   66.4704    1.7054   66.5872    1.8697   66.5831    1.8773   -0.0000   -0.0000
  1.270   66.7061    1.7390   66.6240    1.8743   66.6364    1.8719   66.6778    1.7273   66.7952    1.8931   66.7911    1.9007   -0.0000   -0.0000
  1.280   66.9165    1.7611   66.8337    1.8975   66.8462    1.8952   66.8881    1.7496   67.0063    1.9168   67.0021    1.9245   -0.0000   -0.0000
  1.290   67.1299    1.7836   67.0464    1.9212   67.0590    1.9188   67.1015    1.7721   67.2204    1.9409   67.2162    1.9486   -0.0000   -0.0000
  1.300   67.3465    1.8065   67.2623    1.9452   67.2749    1.9428   67.3181    1.7951   67.4377    1.9654   67.4335    1.9731   -0.0000   -0.0000
  1.310   67.5662    1.8298   67.4813    1.9696   67.4939    1.9672   67.5378    1.8184   67.6581    1.9903   67.6539    1.9980   -0.0000   -0.0000
  1.320   67.7892    1.8534   67.7035    1.9944   67.7162    1.9920   67.7607    1.8421   67.8818    2.0157   67.8776    2.0233   -0.0000   -0.0000
  1.330   68.0154    1.8774   67.9289    2.0196   67.9418    2.0172   67.9869    1.8662   68.1087    2.0414   68.1045    2.0490   -0.0000   -0.0000
  1.340   68.2449    1.9018   68.1577    2.0452   68.1706    2.0428   68.2164    1.8906   68.3390    2.0675   68.3348    2.0752   -0.0000   -0.0000
  1.350   68.4779    1.9266   68.3898    2.0713   68.4028    2.0689   68.4493    1.9155   68.5727    2.0941   68.5684    2.1017   -0.0000   -0.0000
  1.360   68.7142    1.9518   68.6254    2.0977   68.6384    2.0953   68.6856    1.9408   68.8098    2.1211   68.8056    2.1287   -0.0000   -0.0000
  1.370   68.9541    1.9774   68.8644    2.1246   68.8775    2.1222   68.9254    1.9665   69.0504    2.1486   69.0462    2.1562   -0.0000   -0.0000
  1.380   69.1975    2.0035   69.1070    2.1520   69.1202    2.1496   69.1688    1.9927   69.2946    2.1765   69.2904    2.1841   -0.0000   -0.0000
  1.390   69.4444    2.0300   69.3531    2.1798   69.3664    2.1774   69.4158    2.0193   69.5424    2.2049   69.5382    2.2125   -0.0000   -0.0000
  1.400   69.6951    2.0569   69.6029    2.2081   69.6163    2.2057   69.6664    2.0463   69.7939    2.2338   69.7897    2.2414   -0.0000   -0.0000
  1.410   69.9495    2.0844   69.8564    2.2369   69.8699    2.2345   69.9208    2.0738   70.0491    2.2632   70.0449    2.2708   -0.0000   -0.0000
  1.420   70.2077    2.1123   70.1137    2.2662   70.1272    2.2638   70.1790    2.1018   70.3082    2.2931   70.3039    2.3007   -0.0000   -0.0000
  1.430   70.4698    2.1407   70.3748    2.2960   70.3885    2.2936   70.4410    2.1303   70.5711    2.3236   70.5669    2.3311   -0.0000   -0.0000
  1.440   70.7357    2.1696   70.6399    2.3263   70.6536    2.3239   70.7070    2.1593   70.8380    2.3545   70.8337    2.3621   -0.0000   -0.0000
  1.450   71.0057    2.1990   70.9089    2.3572   70.9227    2.3547   70.9770    2.1889   71.1089    2.3861   71.1046    2.3936   -0.0000   -0.0000
  1.460   71.2798    2.2290   71.1820    2.3886   71.1959    2.3861   71.2510    2.2189   71.3838    2.4181   71.3796    2.4257   -0.0000   -0.0000
  1.470   71.5580    2.2594   71.4592    2.4206   71.4732    2.4181   71.5292    2.2495   71.6630    2.4508   71.6587    2.4583   -0.0000   -0.0000
  1.480   71.8404    2.2905   71.7406    2.4532   71.7547    2.4507   71.8116    2.2807   71.9463    2.4841   71.9421    2.4916   -0.0000   -0.0000
  1.490   72.1271    2.3221   72.0263    2.4863   72.0405    2.4838   72.0983    2.3124   72.2340    2.5179   72.2298    2.5255   -0.0000   -0.0000
  1.500   72.4182    2.3543   72.3164    2.5201   72.3306    2.5176   72.3894    2.3447   72.5261    2.5524   72.5219    2.5599   -0.0000   -0.0000
  1.510   72.7137    2.3871   72.6109    2.5545   72.6252    2.5520   72.6850    2.3776   72.8227    2.5876   72.8184    2.5951   -0.0000   -0.0000
  1.520   73.0138    2.4205   72.9098    2.5895   72.9243    2.5870   72.9851    2.4111   73.1238    2.6234   73.1196    2.6309   -0.0000   -0.0000
  1.530   73.3185    2.4545   73.2135    2.6252   73.2280    2.6227   73.2898    2.4453   73.4296    2.6598   73.4253    2.6673   -0.0000   -0.0000
  1.540   73.6280    2.4892   73.5218    2.6616   73.5364    2.6591   73.5992    2.4801   73.7401    2.6970   73.7358    2.7045   -0.0000   -0.0000
  1.550   73.9422    2.5246   73.8348    2.6987   73.8495    2.6962   73.9135    2.5156   74.0554    2.7349   74.0512    2.7424   -0.0000   -0.0000
  1.560   74.2613    2.5606   74.1528    2.7365   74.1676    2.7339   74.2326    2.5518   74.3757    2.7735   74.3714    2.7810   -0.0000   -0.0000
  1.570   74.5854    2.5974   74.4757    2.7750   74.4906    2.7725   74.5568    2.5887   74.7009    2.8129   74.6967    2.8203   -0.0000   -0.0000
  1.580   74.9146    2.6349   74.8037    2.8143   74.8187    2.8117   74.8860    2.6263   75.0313    2.8530   75.0271    2.8604   -0.0000   -0.0000
  1.590   75.2490    2.6731   75.1369    2.8543   75.1520    2.8518   75.2204    2.6647   75.3669    2.8940   75.3627    2.9014   -0.0000   -0.0000
  1.600   75.5888    2.7120   75.4753    2.8952   75.4905    2.8926   75.5602    2.7038   75.7078    2.9357   75.7036    2.9431   -0.0000   -0.0000
  1.610   75.9339    2.7518   75.8191    2.9368   75.8344    2.9343   75.9053    2.7438   76.0542    2.9783   76.0500    2.9857   -0.0000   -0.0000
  1.620   76.2845    2.7924   76.1684    2.9793   76.1838    2.9768   76.2560    2.7845   76.4061    3.0218   76.4019    3.0291   -0.0000   -0.0000
  1.630   76.6407    2.8338   76.5233    3.0227   76.5388    3.0202   76.6123    2.8261   76.7636    3.0661   76.7594    3.0734   -0.0000   -0.0000
  1.640   77.0027    2.8760   76.8839    3.0670   76.8995    3.0644   76.9743    2.8685   77.1269    3.1114   77.1227    3.1187   -0.0000   -0.0000
  1.650   77.3706    2.9192   77.2503    3.1121   77.2661    3.1096   77.3422    2.9119   77.4961    3.1576   77.4919    3.1649   -0.0000   -0.0000
  1.660   77.7444    2.9632   77.6227    3.1583   77.6386    3.1557   77.7161    2.9561   77.8713    3.2047   77.8671    3.2120   -0.0000   -0.0000
  1.670   78.1243    3.0082   78.0012    3.2053   78.0172    3.2028   78.0961    3.0013   78.2527    3.2529   78.2485    3.2602   -0.0000   -0.0000
  1.680   78.5105    3.0541   78.3859    3.2534   78.4020    3.2509   78.4824    3.0474   78.6403    3.3021   78.6361    3.3093   -0.0000   -0.0000
  1.690   78.9031    3.1010   78.7769    3.3025   78.7932    3.3000   78.8751    3.0945   79.0343    3.3523   79.0302    3.3595   -0.0000   -0.0000
  1.700   79.3022    3.1490   79.1744    3.3527   79.1908    3.3502   79.2743    3.1427   79.4349    3.4037   79.4308    3.4108   -0.0000   -0.0000
  1.710   79.7080    3.1979   79.5786    3.4040   79.5951    3.4014   79.6801    3.1919   79.8422    3.4561   79.8381    3.4633   -0.0000   -0.0000
  1.720   80.1205    3.2480   79.9895    3.4564   80.0061    3.4538   80.0928    3.2422   80.2563    3.5097   80.2522    3.5168   -0.0000   -0.0000
  1.730   80.5400    3.2992   80.4074    3.5099   80.4241    3.5073   80.5124    3.2936   80.6774    3.5645   80.6734    3.5716   -0.0000   -0.0000
  1.740   80.9667    3.3515   80.8323    3.5646   80.8491    3.5621   80.9391    3.3462   81.1057    3.6205   81.1016    3.6276   -0.0000   -0.0000
  1.750   81.4006    3.4050   81.2644    3.6206   81.2814    3.6180   81.3732    3.4000   81.5413    3.6778   81.5372    3.6848   -0.0000   -0.0000
  1.760   81.8419    3.4597   81.7040    3.6778   81.7211    3.6753   81.8147    3.4550   81.9844    3.7364   81.9803    3.7434   -0.0000   -0.0000
  1.770   82.2909    3.5157   82.1511    3.7363   82.1684    3.7338   82.2638    3.5112   82.4351    3.7963   82.4311    3.8033   -0.0000   -0.0000
  1.780   82.7477    3.5730   82.6060    3.7962   82.6234    3.7937   82.7207    3.5688   82.8936    3.8576   82.8896    3.8646   -0.0000   -0.0000
  1.790   83.2124    3.6316   83.0689    3.8575   83.0864    3.8550   83.1856    3.6277   83.3602    3.9204   83.3562    3.9273   -0.0000   -0.0000
  1.800   83.6854    3.6916   83.5398    3.9202   83.5575    3.9177   83.6587    3.6880   83.8350    3.9846   83.8310    3.9915   -0.0000   -0.0000
  1.810   84.1666    3.7530   84.0191    3.9844   84.0369    3.9819   84.1402    3.7498   84.3182    4.0503   84.3142    4.0572   -0.0000   -0.0000
  1.820   84.6565    3.8159   84.5069    4.0501   84.5248    4.0476   84.6303    3.8130   84.8100    4.1177   84.8061    4.1245   -0.0000   -0.0000
  1.830   85.1551    3.8803   85.0034    4.1174   85.0215    4.1149   85.1291    3.8778   85.3106    4.1866   85.3067    4.1934   -0.0000   -0.0000
  1.840   85.6627    3.9463   85.5088    4.1864   85.5271    4.1839   85.6369    3.9442   85.8203    4.2573   85.8164    4.2640   -0.0000   -0.0000
  1.850   86.1796    4.0140   86.0234    4.2570   86.0419    4.2545   86.1540    4.0122   86.3392    4.3296   86.3353    4.3363   -0.0000   -0.0000
  1.860   86.7058    4.0833   86.5474    4.3294   86.5660    4.3269   86.6805    4.0819   86.8676    4.4038   86.8638    4.4104   -0.0000   -0.0000
  1.870   87.2418    4.1543   87.0811    4.4036   87.0998    4.4011   87.2167    4.1533   87.4057    4.4798   87.4020    4.4864   -0.0000   -0.0000
  1.880   87.7877    4.2272   87.6246    4.4796   87.6435    4.4772   87.7629    4.2266   87.9539    4.5578   87.9501    4.5643   -0.0000   -0.0000
  1.890   88.3438    4.3019   88.1782    4.5576   88.1972    4.5552   88.3193    4.3018   88.5122    4.6377   88.5086    4.6442   -0.0000   -0.0000
  1.900   88.9103    4.3786   88.7422    4.6376   88.7614    4.6352   88.8861    4.3789   89.0811    4.7198   89.0775    4.7262   -0.0000   -0.0000
  1.910   89.4876    4.4572   89.3169    4.7196   89.3363    4.7172   89.4637    4.4580   89.6608    4.8039   89.6572    4.8103   -0.0000   -0.0000
  1.920   90.0758    4.5379   89.9025    4.8038   89.9221    4.8015   90.0523    4.5393   90.2515    4.8903   90.2480    4.8966   -0.0000   -0.0000
  1.930   90.6754    4.6208   90.4994    4.8903   90.5191    4.8879   90.6522    4.6226   90.8536    4.9789   90.8501    4.9852   -0.0000   -0.0000
  1.940   91.2866    4.7059   91.1078    4.9790   91.1277    4.9767   91.2638    4.7083   91.4674    5.0699   91.4640    5.0761   -0.0000   -0.0000
  1.950   91.9097    4.7933   91.7280    5.0701   91.7481    5.0678   91.8873    4.7962   92.0932    5.1634   92.0898    5.1696   -0.0000   -0.0000
  1.960   92.5451    4.8831   92.3604    5.1637   92.3807    5.1614   92.5231    4.8866   92.7313    5.2595   92.7279    5.2655   -0.0000   -0.0000
  1.970   93.1931    4.9753   93.0054    5.2599   93.0259    5.2576   93.1715    4.9795   93.3821    5.3582   93.3788    5.3641   -0.0000   -0.0000
  1.980   93.8540    5.0702   93.6632    5.3587   93.6839    5.3565   93.8329    5.0750   94.0459    5.4596   94.0426    5.4655   -0.0000   -0.0000
  1.990   94.5282    5.1677   94.3343    5.4603   94.3551    5.4581   94.5077    5.1732   94.7231    5.5639   94.7199    5.5697   -0.0000   -0.0000
  2.000   95.2162    5.2680   95.0189    5.5648   95.0400    5.5626   95.1961    5.2742   95.4140    5.6712   95.4109    5.6769   -0.0000   -0.0000
  2.010   95.9183    5.3712   95.7176    5.6722   95.7389    5.6701   95.8987    5.3781   96.1192    5.7815   96.1162    5.7872   -0.0000   -0.0000
  2.020   96.6348    5.4774   96.4307    5.7828   96.4522    5.7807   96.6159    5.4850   96.8390    5.8951   96.8360    5.9007   -0.0000   -0.0000
  2.030   97.3664    5.5867   97.1586    5.8966   97.1803    5.8945   97.3480    5.5951   97.5737    6.0120   97.5708    6.0175   -0.0000   -0.0000
  2.040   98.1133    5.6993   97.9019    6.0138   97.9238    6.0117   98.0955    5.7085   98.3240    6.1323   98.3212    6.1377   -0.0000   -0.0000
  2.050   98.8760    5.8153   98.6608    6.1344   98.6830    6.1324   98.8590    5.8253   99.0902    6.2563   99.0875    6.2616   -0.0000   -0.0000
  2.060   99.6551    5.9347   99.4360    6.2587   99.4584    6.2567   99.6388    5.9457   99.8729    6.3840   99.8702    6.3892   -0.0000   -0.0000
  2.070  100.4511    6.0579  100.2279    6.3867  100.2505    6.3848  100.4355    6.0698  100.6725    6.5157  100.6699    6.5208   -0.0000   -0.0000
  2.080  101.2644    6.1848  101.0371    6.5188  101.0599    6.5169  101.2496    6.1977  101.4895    6.6514  101.4871    6.6564   -0.0000   -0.0000
  2.090  102.0957    6.3158  101.8641    6.6549  101.8871    6.6531  102.0816    6.3296  102.3246    6.7913  102.3223    6.7962   -0.0000   -0.0000
  2.100  102.9454    6.4509  102.7094    6.7953  102.7327    6.7935  102.9322    6.4658  103.1783    6.9357  103.1761    6.9405   -0.0000   -0.0000
  2.110  103.8142    6.5903  103.5736    6.9402  103.5972    6.9385  103.8019    6.6063  104.0512    7.0848  104.0491    7.0894   -0.0000   -0.0000
  2.120  104.7027    6.7342  104.4574    7.0897  104.4813    7.0881  104.6914    6.7515  104.9439    7.2386  104.9419    7.2431   -0.0000   -0.0000
  2.130  105.6116    6.8829  105.3614    7.2441  105.3855    7.2426  105.6013    6.9014  105.8571    7.3975  105.8552    7.4019   -0.0000   -0.0000
  2.140  106.5416    7.0365  106.2863    7.4037  106.3107    7.4022  106.5322    7.0563  106.7914    7.5617  106.7897    7.5659   -0.0000   -0.0000
  2.150  107.4932    7.1953  107.2328    7.5685  107.2574    7.5671  107.4850    7.2164  107.7476    7.7313  107.7461    7.7354   -0.0000   -0.0000
  2.160  108.4674    7.3595  108.2016    7.7389  108.2265    7.7375  108.4603    7.3820  108.7265    7.9068  108.7251    7.9107   -0.0000   -0.0000
  2.170  109.4648    7.5293  109.1935    7.9151  109.2187    7.9138  109.4590    7.5533  109.7288    8.0883  109.7275    8.0920   -0.0000   -0.0000
  2.180  110.4863    7.7051  110.2092    8.0975  110.2347    8.0962  110.4818    7.7306  110.7553    8.2760  110.7542    8.2796   -0.0000   -0.0000
  2.190  111.5328    7.8870  111.2497    8.2862  111.2755    8.2850  111.5296    7.9141  111.8068    8.4705  111.8059    8.4738   -0.0000   -0.0000
  2.200  112.6050    8.0755  112.3158    8.4816  112.3419    8.4805  112.6032    8.1043  112.8844    8.6718  112.8837    8.6750   -0.0000   -0.0000
  2.210  113.7041    8.2708  113.4085    8.6840  113.4349    8.6830  113.7038    8.3014  113.9889    8.8804  113.9884    8.8834   -0.0000   -0.0000
  2.220  114.8308    8.4732  114.5286    8.8938  114.5553    8.8929  114.8321    8.5057  115.1213    9.0967  115.1210    9.0995   -0.0000   -0.0000
  2.230  115.9864    8.6831  115.6773    9.1113  115.7044    9.1105  115.9893    8.7176  116.2826    9.3209  116.2825    9.3235   -0.0000   -0.0000
  2.240  117.1718    8.9010  116.8556    9.3369  116.8830    9.3363  117.1764    8.9375  117.4740    9.5536  117.4742    9.5560   -0.0000   -0.0000
  2.250  118.3882    9.1271  118.0646    9.5711  118.0923    9.5706  118.3946    9.1658  118.6966    9.7952  118.6970    9.7973   -0.0000   -0.0000
  2.260  119.6368    9.3620  119.3054    9.8142  119.3336    9.8138  119.6452    9.4030  119.9515   10.0460  119.9522   10.0479   -0.0000   -0.0000
  2.270  120.9188    9.6061  120.5795   10.0668  120.6080   10.0666  120.9292    9.6495  121.2401   10.3067  121.2411   10.3084   -0.0000   -0.0000
  2.280  122.2356    9.8598  121.8880   10.3293  121.9168   10.3292  122.2482    9.9059  122.5638   10.5777  122.5650   10.5791   -0.0000   -0.0000
  2.290  123.5886   10.1238  123.2323   10.6024  123.2616   10.6024  123.6034   10.1725  123.9238   10.8597  123.9253   10.8607   -0.0000   -0.0000
  2.300  124.9792   10.3986  124.6139   10.8865  124.6436   10.8867  124.9964   10.4501  125.3216   11.1531  125.3235   11.1539   -0.0000   -0.0000
  2.310  126.4090   10.6847  126.0344   11.1822  126.0644   11.1826  126.4287   10.7393  126.7590   11.4587  126.7612   11.4591   -0.0000   -0.0000
  2.320  127.8797   10.9829  127.4953   11.4904  127.5257   11.4909  127.9020   11.0406  128.2374   11.7770  128.2400   11.7772   -0.0000   -0.0000
  2.330  129.3929   11.2938  128.9983   11.8115  129.0292   11.8122  129.4180   11.3549  129.7586   12.1090  129.7616   12.1088   -0.0000   -0.0000
  2.340  130.9505   11.6181  130.5453   12.1464  130.5766   12.1474  130.9785   11.6828  131.3245   12.4553  131.3280   12.4548   -0.0000   -0.0000
  2.350  132.5544   11.9567  132.1381   12.4960  132.1699   12.4971  132.5856   12.0251  132.9371   12.8169  132.9410   12.8160   -0.0000   -0.0000
  2.360  134.2067   12.3104  133.7789   12.8610  133.8111   12.8624  134.2412   12.3828  134.5983   13.1945  134.6027   13.1932   -0.0000   -0.0000
  2.370  135.9096   12.6801  135.4696   13.2425  135.5024   13.2440  135.9475   12.7568  136.3104   13.5893  136.3153   13.5876   -0.0000   -0.0000
  2.380  137.6654   13.0669  137.2127   13.6414  137.2459   13.6432  137.7069   13.1481  138.0757   14.0022  138.0811   14.0001   -0.0000   -0.0000
  2.390  139.4765   13.4717  139.0105   14.0588  139.0442   14.0609  139.5219   13.5577  139.8967   14.4345  139.9026   14.4319   -0.0000   -0.0000
  2.400  141.3454   13.8959  140.8655   14.4959  140.8998   14.4982  141.3949   13.9869  141.7759   14.8873  141.7825   14.8842   -0.0000   -0.0000
  2.410  143.2751   14.3405  142.7806   14.9540  142.8154   14.9566  143.3289   14.4369  143.7162   15.3619  143.7234   15.3584   -0.0000   -0.0000
  2.420  145.2683   14.8070  144.7585   15.4345  144.7939   15.4374  145.3268   14.9092  145.7205   15.8600  145.7284   15.8559   -0.0000   -0.0000
  2.430  147.3284   15.2968  146.8024   15.9388  146.8384   15.9420  147.3916   15.4052  147.7919   16.3829  147.8005   16.3783   -0.0000   -0.0000
  2.440  149.4585   15.8116  148.9156   16.4685  148.9522   16.4722  149.5269   15.9265  149.9338   16.9325  149.9433   16.9273   -0.0000   -0.0000
  2.450  151.6622   16.3531  151.1015   17.0256  151.1388   17.0296  151.7361   16.4749  152.1499   17.5105  152.1602   17.5047   -0.0000   -0.0000
  2.460  153.9435   16.9231  153.3640   17.6118  153.4019   17.6162  154.0231   17.0524  154.4439   18.1190  154.4550   18.1126   -0.0000   -0.0000
  2.470  156.3062   17.5238  155.7069   18.2292  155.7455   18.2340  156.3920   17.6611  156.8199   18.7603  156.8320   18.7531   -0.0000   -0.0000
  2.480  158.7549   18.1573  158.1347   18.8802  158.1740   18.8855  158.8472   18.3032  159.2822   19.4366  159.2954   19.4287   -0.0000   -0.0000
  2.490  161.2941   18.8262  160.6518   19.5672  160.6918   19.5730  161.3933   18.9812  161.8357   20.1507  161.8500   20.1421   -0.0000   -0.0000
  2.500  163.9289   19.5332  163.2633   20.2930  163.3040   20.2993  164.0355   19.6980  164.4853   20.9053  164.5007   20.8960   -0.0000   -0.0000
  2.510  166.6647   20.2811  165.9744   21.0605  166.0159   21.0674  166.7791   20.4566  167.2364   21.7038  167.2531   21.6936   -0.0000   -0.0000
  2.520  169.5073   21.0734  168.7907   21.8731  168.8330   21.8806  169.6299   21.2602  170.0948   22.5496  170.1130   22.5385   -0.0000   -0.0000
  2.530  172.4628   21.9135  171.7184   22.7345  171.7616   22.7425  172.5943   22.1125  173.0669   23.4464  173.0865   23.4344   -0.0000   -0.0000
  2.540  175.5381   22.8054  174.7641   23.6485  174.8081   23.6572  175.6790   23.0176  176.1592   24.3986  176.1804   24.3856   -0.0000   -0.0000
  2.550  178.7403   23.7535  177.9348   24.6196  177.9798   24.6291  178.8913   23.9800  179.3791   25.4108  179.4021   25.3967   -0.0000   -0.0000
  2.560  182.0774   24.7626  181.2383   25.6528  181.2842   25.6631  182.2390   25.0046  182.7345   26.4882  182.7593   26.4730   -0.0000   -0.0000
  2.570  185.5578   25.8382  184.6829   26.7534  184.7298   26.7645  185.7307   26.0969  186.2338   27.6365  186.2607   27.6202   -0.0000   -0.0000
  2.580  189.1906   26.9862  188.2775   27.9275  188.3254   27.9395  189.3757   27.2631  189.8862   28.8622  189.9153   28.8447   -0.0000   -0.0000
  2.590  192.9859   28.2133  192.0319   29.1818  192.0808   29.1949  193.1840   28.5099  193.7017   30.1724  193.7332   30.1536   -0.0000   -0.0000
  2.600  196.9546   29.5270  195.9566   30.5239  196.0067   30.5380  197.1665   29.8451  197.6912   31.5751  197.7253   31.5549   -0.0000   -0.0000
  2.610  201.1083   30.9357  200.0632   31.9621  200.1145   31.9774  201.3350   31.2772  201.8663   33.0792  201.9033   33.0576   -0.0000   -0.0000
  2.620  205.4601   32.4486  204.3642   33.5060  204.4167   33.5225  205.7025   32.8157  206.2400   34.6948  206.2801   34.6717   -0.0000   -0.0000
  2.630  210.0238   34.0765  208.8733   35.1661  208.9271   35.1840  210.2832   34.4717  210.8261   36.4332  210.8697   36.4085   -0.0000   -0.0000
  2.640  214.8149   35.8314  213.6054   36.9545  213.6606   36.9740  215.0923   36.2573  215.6400   38.3073  215.6873   38.2808   -0.0000   -0.0000
  2.650  219.8501   37.7267  218.5769   38.8848  218.6334   38.9059  220.1469   38.1864  220.6983   40.3314  220.7498   40.3032   -0.0000   -0.0000
  2.660  225.1479   39.7779  223.8055   40.9725  223.8635   40.9953  225.4653   40.2748  226.0193   42.5222  226.0753   42.4921   -0.0000   -0.0000
  2.670  230.7285   42.0025  229.3110   43.2350  229.3705   43.2598  231.0680   42.5406  231.6231   44.8983  231.6841   44.8662   -0.0000   -0.0000
  2.680  236.6141   44.4207  235.1148   45.6927  235.1759   45.7196  236.9771   45.0044  237.5314   47.4813  237.5980   47.4472   -0.0000   -0.0000
  2.690  242.8291   47.0556  241.2406   48.3684  241.3034   48.3977  243.2174   47.6898  243.7686   50.2959  243.8413   50.2596   -0.0000   -0.0000
  2.700  249.4006   49.9337  247.7145   51.2887  247.7790   51.3206  249.8158   50.6242  250.3610   53.3704  250.4406   53.3319   -0.0000   -0.0000
  2.710  256.3584   53.0858  254.5652   54.4844  254.6315   54.5192  256.8022   53.8391  257.3380   56.7378  257.4252   56.6970   -0.0000   -0.0000
  2.720  263.7352   56.5476  261.8244   57.9911  261.8926   58.0290  264.2095   57.3713  264.7315   60.4363  264.8272   60.3931   -0.0000   -0.0000
  2.730  271.5674   60.3609  269.5269   61.8500  269.5971   61.8915  272.0741   61.2635  272.5769   64.5103  272.6823   64.4648   -0.0000   -0.0000
  2.740  279.8953   64.5745  277.7113   66.1099  277.7836   66.1553  280.4361   65.5660  280.9132   69.0121  281.0293   68.9641   -0.0000   -0.0000
  2.750  288.7633   69.2458  286.4202   70.8275  286.4946   70.8773  289.3400   70.3379  289.7831   74.0029  289.9114   73.9525   -0.0001   -0.0000
  2.760  298.2204   74.4428  295.7004   76.0704  295.7769   76.1251  298.8345   75.6491  299.2335   79.5553  299.3755   79.5027   -0.0004   -0.0000
  2.770  308.3207   80.2464  305.6033   81.9183  305.6820   81.9785  308.9736   81.5827  309.3156   85.7553  309.4733   85.7007   -0.0014   -0.0000
  2.780  319.1238   86.7531  316.1852   88.4666  316.2663   88.5330  319.8160   88.2380  320.0851   92.7059  320.2606   92.6495   -0.0039   -0.0000
  2.790  330.6946   94.0790  327.5077   95.8295  327.5910   95.9029  331.4260   95.7346  331.6021  100.5305  331.7979  100.4729   -0.0110   -0.0000
  2.800  343.1037  102.3644  339.6369  104.1450  339.7223  104.2264  343.8730  104.2167  343.9304  109.3780  344.1496  109.3200   -0.0293   -0.0000
  2.810  356.4266  111.7798  352.6434  113.5802  352.7308  113.6707  357.2304  113.8600  357.1368  119.4293  357.3829  119.3719   -0.0747   -0.0000
  2.820  370.7429  122.5338  366.6006  124.3393  366.6898  124.4401  371.5751  124.8790  371.2889  130.9048  371.5661  130.8498   -0.1823   -0.0001
  2.830  386.1333  134.8832  381.5827  136.6727  381.6733  136.7854  386.9838  137.5377  386.4515  144.0754  386.7648  144.0249   -0.4259   -0.0003
  2.840  402.6762  149.1454  397.6596  150.8895  397.7510  151.0157  403.5286  152.1627  402.6809  159.2747  403.0361  159.2320   -0.9527   -0.0006
  2.850  420.4392  165.7158  414.8902  167.3731  414.9816  167.5150  421.2686  169.1601  420.0149  176.9162  420.4191  176.8859   -2.0406   -0.0014
  2.860  439.4674  185.0891  433.3096  186.6020  433.3997  186.7619  440.2359  189.0373  438.4573  197.5139  438.9186  197.5025   -4.1840   -0.0029
  2.870  459.7625  207.8862  452.9088  209.1744  452.9959  209.3550  460.4132  212.4302  457.9527  221.7086  458.4804  221.7252   -8.2102   -0.0059
  2.880  481.2484  234.8886  473.6024  235.8406  473.6840  236.0451  481.6967  240.1366  478.3458  250.2978  478.9508  250.3555  -15.4123   -0.0116
  2.890  503.7172  267.0785  495.1755  267.5398  495.2481  267.7717  503.8377  273.1555  499.3189  284.2703  500.0127  284.3874  -27.6639   -0.0218
  2.900  526.7400  305.6834  517.2002  305.4404  517.2588  305.7033  526.3483  312.7273  520.2923  324.8371  521.0865  325.0396  -47.4499   -0.0392
  2.910  549.5272  352.2137  538.9031  350.9738  538.9410  351.2714  548.3543  360.3647  540.2730  373.4464  541.1771  373.7711  -77.7211   -0.0678
  2.920  570.7108  408.4726  558.9614  405.8408  558.9696  406.1764  568.3693  417.8474  557.6290  431.7525  558.6462  432.2499 -121.4834   -0.1124
  2.930  588.0188  476.4857  575.2002  471.9427  575.1667  472.3182  583.9656  487.1247  569.7728  501.4761  570.8926  502.2142 -181.0717   -0.1789
  2.940  597.8244  558.2476  584.1740  551.1428  584.0836  551.5576  591.3325  570.0182  572.7659  584.0498  573.9506  585.1153 -257.1718   -0.2734
  2.950  594.6114  655.1060  580.6733  644.6935  580.5074  645.1430  584.7883  667.5445  560.9411  679.8833  562.1063  681.3750 -347.7998   -0.4013
  2.960  570.5753  766.5253  557.3550  752.0931  557.0916  752.5663  556.5000  778.6278  526.8387  787.0776  527.8288  789.0834 -447.5900   -0.5657
  2.970  515.9448  888.0369  505.0289  869.1947  504.6440  869.6707  497.0196  898.0878  462.0532  899.6187  462.6271  902.1651 -547.7951   -0.7671
  2.980  421.0983 1008.7235  414.5807  985.8750  414.0508  986.3177  397.6346 1014.3962  359.7819 1005.7332  359.6389 1008.7085 -637.3060   -1.0013
  2.990  281.4940 1109.9888  281.4685 1084.8407  280.7818 1085.1917  255.2633 1109.0097  219.2755 1088.1474  218.1582 1091.2384 -704.8042   -1.2603
  3.000  104.3618 1168.9570  111.8875 1144.5920  111.0670 1144.7749   78.4816 1160.2649   50.3517 1128.3814   48.2078 1131.1105 -742.0558   -1.5330
  3.010  -88.2294 1168.3216  -74.1657 1148.2651  -75.0432 1148.2175 -110.4642 1152.8937 -126.2584 1114.8745 -129.1742 1116.7833 -748.6007   -1.8081
  3.020 -266.2608 1107.1794 -248.6867 1093.7019 -249.5132 1093.4218 -282.8891 1087.5870 -285.7531 1049.9060 -288.9680 1050.7748 -738.4557   -2.0795
  3.030 -405.8595 1002.3450 -388.3377  995.3869 -389.0326  994.9400 -416.8123  981.3138 -409.7292  948.8930 -412.7789  948.8064 -747.8449   -2.3543
  3.040 -498.5618  878.3087 -483.5243  875.9435 -484.0729  875.4166 -504.9838  857.5339 -492.1710  832.3024 -494.7698  831.5309 -834.9207   -2.6611
  3.050 -549.7267  755.8152 -537.8159  755.5438 -538.2575  754.9929 -552.8610  735.6993 -537.7383  717.2723 -539.8008  716.1106 *********   -3.0472
  3.060 -571.6650  646.6973 -561.9591  646.5832 -562.3472  646.0047 -571.9474  626.8367 -556.4606  613.9209 -558.0325  612.5895 *********   -3.5513
  3.070 -577.5729  553.3384 -568.2775  552.9096 -568.6205  552.2415 -574.2251  533.6527 -559.1995  525.1632 -560.3716  523.7785 *********   -4.1593
  3.080 -575.2091  470.3636 -565.2941  470.9854 -565.4929  470.1875 -567.3266  452.4972 -553.4175  447.8942 -554.2408  446.5043 *********   -4.7852
  3.090 -562.9923  393.8500 -553.5929  396.7635 -553.5449  395.9495 -551.8751  380.1632 -540.0145  378.6441 -540.5120  377.3262 *********   -5.3135
  3.100 -540.2116  327.7211 -532.7189  332.2761 -532.4836  331.5865 -528.4592  318.5425 -518.9949  318.8064 -519.2486  317.6363 -978.1112   -5.6730
  3.110 -512.0110  274.4283 -506.6008  279.4660 -506.2873  278.9262 -501.1589  268.5834 -493.7566  269.6507 -493.8590  268.6385 -533.9443   -5.8692
  3.120 -482.8712  232.1857 -479.1281  237.0237 -478.7989  236.6023 -473.3441  228.4991 -467.5397  229.8714 -467.5491  228.9965 -234.9447   -5.9555
  3.130 -454.8134  198.3522 -452.2808  202.7167 -451.9607  202.3789 -446.5723  196.0358 -441.9908  197.4808 -441.9399  196.7206  -84.6947   -5.9867
  3.140 -428.5223  170.8282 -426.8449  174.6486 -426.5412  174.3691 -421.4042  169.3971 -417.7696  170.8038 -417.6781  170.1397  -25.9486   -5.9962
  3.150 -404.1471  148.1123 -403.0713  151.4046 -402.7848  151.1657 -397.9803  147.2677 -395.0896  148.5815 -394.9705  147.9991   -7.2723   -5.9989
  3.160 -381.6346  129.1304 -380.9833  131.9425 -380.7118  131.7323 -376.2695  128.6825 -373.9707  129.8778 -373.8326  129.3656   -2.1183   -5.9997
  3.170 -360.8570  113.0962 -360.5062  115.4849 -360.2471  115.2949 -356.1702  112.9205 -354.3472  113.9870 -354.1965  113.5357   -0.8219   -6.0000
  3.180 -341.6623   99.4199 -341.5249  101.4407 -341.2752  101.2649 -337.5538   99.4323 -336.1163  100.3682 -335.9576   99.9703   -0.7492   -6.0002
  3.190 -323.8955   87.6500 -323.9097   89.3539 -323.6664   89.1878 -320.2843   87.7922 -319.1612   88.6006 -318.9980   88.2498   -1.5977   -6.0008
  3.200 -307.4070   77.4353 -307.5288   78.8672 -307.2890   78.7073 -304.2276   77.6658 -303.3619   78.3522 -303.1968   78.0434   -4.1022   -6.0023
  3.210 -292.0564   68.4981 -292.2543   69.6974 -292.0150   69.5410 -289.2552   68.7869 -288.6008   69.3581 -288.4359   69.0872  -10.0591   -6.0060
  3.220 -277.7124   60.6163 -277.9642   61.6172 -277.7221   61.4621 -275.2457   60.9415 -274.7644   61.4049 -274.6018   61.1682  -22.7136   -6.0144
  3.230 -264.2522   53.6098 -264.5422   54.4421 -264.2942   54.2864 -262.0842   53.9550 -261.7439   54.3183 -261.5856   54.1130  -46.9808   -6.0316
  3.240 -251.5595   47.3308 -251.8773   48.0208 -251.6194   47.8627 -249.6609   47.6841 -249.4338   47.9551 -249.2818   47.7786  -88.9397   -6.0643
  3.250 -239.5207   41.6566 -239.8600   42.2277 -239.5880   42.0659 -237.8680   42.0094 -237.7296   42.1966 -237.5864   42.0461 -154.0795   -6.1209
  3.260 -228.0209   36.4848 -228.3795   36.9585 -228.0876   36.7916 -226.5962   36.8314 -226.5241   36.9444 -226.3923   36.8169 -244.2737   -6.2107
  3.270 -216.9366   31.7314 -217.3160   32.1275 -216.9971   31.9547 -215.7283   32.0683 -215.7016   32.1190 -215.5840   32.0103 -354.4663   -6.3410
  3.280 -206.1267   27.3345 -206.5337   27.6719 -206.1778   27.4933 -205.1309   27.6588 -205.1308   27.6629 -205.0296   27.5670 -471.0840   -6.5141
  3.290 -195.4247   23.2678 -195.8726   23.5637 -195.4662   23.3818 -194.6473   23.5733 -194.6583   23.5511 -194.5729   23.4608 -574.3397   -6.7252
  3.300 -184.6414   19.5623 -185.1524   19.8306 -184.6779   19.6528 -184.0965   19.8326 -184.1083   19.8092 -184.0343   19.7176 -645.1940   -6.9623
  3.310 -173.5824   16.3239 -174.1903   16.5718 -173.6264   16.4140 -173.2852   16.5261 -173.2928   16.5302 -173.2229   16.4349 -675.1190   -7.2104
  3.320 -162.0596   13.7357 -162.8123   13.9574 -162.1361   13.8481 -162.0148   13.8209 -162.0168   13.8885 -161.9455   13.7928 -674.2138   -7.4581
  3.330 -149.8744   12.0856 -150.8368   12.2515 -150.0269   12.2375 -150.0692   11.9974 -150.0709   12.1831 -150.0001   12.0917 -672.1975   -7.7052
  3.340 -136.8296   11.8768 -138.0829   11.9101 -137.1276   12.0668 -137.2326   11.5588 -137.2697   11.9514 -137.2078   11.8619 -708.5103   -7.9655
  3.350 -122.8937   14.0003 -124.5101   13.7353 -123.4337   14.1794 -123.4542   13.4023 -123.6489   14.1222 -123.6018   14.0171 -812.8364   -8.2642
  3.360 -108.6568   19.8171 -110.6118   18.9616 -109.5318   19.8418 -109.3070   18.9064 -109.9567   20.0287 -109.9077   19.8772 -984.8228   -8.6262
  3.370  -96.1147   30.7019  -98.1126   28.9037  -97.3123   30.3080  -96.7862   29.4711  -98.3756   30.7802  -98.2653   30.5695 *********   -9.0623
  3.380  -88.9976   46.3491  -90.3815   43.5188  -90.2502   45.2618  -89.6364   44.7926  -92.4453   45.5003  -92.2065   45.2917 *********   -9.5621
  3.390  -90.5728   62.7272  -90.7066   59.4053  -91.3815   60.9589  -91.0959   60.8260  -94.4991   60.0009  -94.1518   59.9028 *********  -10.0971
  3.400  -99.5167   73.8506  -98.4249   70.9194  -99.5443   71.8432  -99.7966   71.6520 -102.5802   69.3025 -102.2188   69.3557 *********  -10.6358
  3.410 -110.3875   77.2634 -108.6829   75.1959 -109.7645   75.5129 -110.3636   74.9035 -111.9243   71.8903 -111.6193   72.0657 *********  -11.1594
  3.420 -118.8803   75.1095 -117.1315   73.8163 -117.9599   73.7927 -118.6016   72.7023 -119.1118   69.7621 -118.8953   70.0179 *********  -11.6682
  3.430 -123.9150   70.5610 -122.3723   69.7530 -122.9549   69.6047 -123.4673   68.1330 -123.3115   65.5591 -123.1968   65.8572 *********  -12.1761
  3.440 -126.1786   65.6851 -124.8734   65.1234 -125.2852   64.9552 -125.6170   63.1883 -125.0842   61.0141 -125.0743   61.3187 *********  -12.6975
  3.450 -126.7735   61.4152 -125.6544   60.9532 -125.9594   60.8013 -126.0815   58.7603 -125.3344   56.9382 -125.4222   57.2143 *********  -13.2722
  3.460 -126.7260   57.9028 -125.6969   57.4391 -125.9559   57.3365 -125.7825   55.0160 -124.8999   53.4949 -125.0684   53.7124 *********  -14.4874
  3.470 -126.7188   54.7407 -125.6451   54.3694 -125.9308   54.2082 -125.3244   51.6869 -124.3442   50.4598 -124.5600   50.5840 *********  -15.2924
  3.480 -126.8107   51.2596 -125.7661   51.0263 -125.9754   50.8061 -124.8494   48.2418 -123.8423   47.3102 -124.0514   47.3458 *********  -15.7648
  3.490 -126.4782   47.1877 -125.4977   47.0959 -125.6218   46.8625 -123.9883   44.4624 -123.0297   43.8016 -123.2008   43.7769 *********  -16.1604
  3.500 -125.2777   42.8475 -124.4056   42.8759 -124.4579   42.6609 -122.4413   40.5815 -121.5908   40.1352 -121.7168   40.0828 -841.6005  -16.4697
  3.510 -123.2099   38.7300 -122.4683   38.8341 -122.4718   38.6526 -120.2320   36.9512 -119.5135   36.6518 -119.6029   36.5938 -609.5147  -16.6937
  3.520 -120.5506   35.1174 -119.9357   35.2554 -119.9109   35.1086 -117.5802   33.7674 -116.9887   33.5596 -117.0536   33.5057 -409.2877  -16.8441
  3.530 -117.5862   32.0627 -117.0814   32.2058 -117.0418   32.0889 -114.7072   31.0572 -114.2257   30.9039 -114.2752   30.8568 -256.3805  -16.9383
  3.540 -114.5129   29.5050 -114.0991   29.6371 -114.0525   29.5438 -111.7631   28.7653 -111.3727   28.6446 -111.4127   28.6039 -152.3747  -16.9943
  3.550 -111.4420   27.3551 -111.1022   27.4683 -111.0525   27.3932 -108.8333   26.8179 -108.5172   26.7169 -108.5512   26.6817  -89.3543  -17.0272
  3.560 -108.4298   25.5306 -108.1502   25.6217 -108.0996   25.5606 -105.9607   25.1477 -105.7055   25.0593 -105.7356   25.0286  -55.6682  -17.0476
  3.570 -105.5020   23.9651 -105.2716   24.0337 -105.2212   23.9833 -103.1651   23.7006 -102.9599   23.6211 -102.9873   23.5939  -40.3825  -17.0625
  3.580 -102.6677   22.6080 -102.4782   22.6551 -102.4284   22.6129 -100.4533   22.4353 -100.2897   22.3626 -100.3152   22.3382  -35.4060  -17.0755
  3.590  -99.9281   21.4210  -99.7730   21.4481  -99.7240   21.4123  -97.8261   21.3203  -97.6974   21.2534  -97.7216   21.2315  -35.7034  -17.0886
  3.600  -97.2802   20.3753  -97.1548   20.3842  -97.1064   20.3534  -95.2812   20.3315  -95.1819   20.2702  -95.2051   20.2503  -38.5591  -17.1028
  3.610  -94.7196   19.4489  -94.6199   19.4414  -94.5722   19.4146  -92.8148   19.4506  -92.7406   19.3951  -92.7630   19.3769  -42.6799  -17.1185
  3.620  -92.2410   18.6249  -92.1642   18.6029  -92.1170   18.5792  -90.4226   18.6631  -90.3699   18.6139  -90.3918   18.5973  -47.5134  -17.1359
  3.630  -89.8391   17.8900  -89.7830   17.8554  -89.7363   17.8340  -88.1003   17.9579  -88.0662   17.9156  -88.0877   17.9004  -52.8428  -17.1553
  3.640  -87.5090   17.2341  -87.4719   17.1884  -87.4255   17.1688  -85.8438   17.3261  -85.8257   17.2914  -85.8469   17.2775  -58.5859  -17.1769
  3.650  -85.2460   16.6488  -85.2267   16.5936  -85.1804   16.5754  -83.6492   16.7605  -83.6450   16.7344  -83.6660   16.7216  -64.7070  -17.2006
  3.660  -83.0459   16.1277  -83.0436   16.0644  -82.9972   16.0472  -81.5129   16.2554  -81.5208   16.2388  -81.5418   16.2271  -71.1831  -17.2268
  3.670  -80.9047   15.6655  -80.9189   15.5954  -80.8724   15.5789  -79.4317   15.8061  -79.4503   15.8002  -79.4712   15.7894  -77.9911  -17.2555
  3.680  -78.8192   15.2579  -78.8496   15.1822  -78.8028   15.1662  -77.4027   15.4089  -77.4307   15.4147  -77.4516   15.4049  -85.1038  -17.2867
  3.690  -76.7863   14.9016  -76.8329   14.8214  -76.7856   14.8055  -75.4234   15.0607  -75.4597   15.0794  -75.4808   15.0705  -92.4882  -17.3207
  3.700  -74.8035   14.5938  -74.8664   14.5101  -74.8185   14.4942  -73.4916   14.7590  -73.5354   14.7919  -73.5566   14.7837 -100.1052  -17.3575
  3.710  -72.8685   14.3321  -72.9481   14.2458  -72.8995   14.2297  -71.6056   14.5016  -71.6561   14.5501  -71.6775   14.5427 -107.9096  -17.3972
  3.720  -70.9796   14.1148  -71.0764   14.0267  -71.0269   14.0103  -69.7637   14.2868  -69.8205   14.3523  -69.8421   14.3456 -115.8502  -17.4398
  3.730  -69.1352   13.9402  -69.2499   13.8511  -69.1994   13.8341  -67.9650   14.1131  -68.0275   14.1972  -68.0494   14.1910 -123.8703  -17.4853
  3.740  -67.3343   13.8070  -67.4679   13.7174  -67.4161   13.6999  -66.2085   13.9792  -66.2765   14.0833  -66.2987   14.0777 -131.9081  -17.5337
  3.750  -65.5762   13.7140  -65.7296   13.6245  -65.6765   13.6062  -64.4937   13.8837  -64.5672   14.0096  -64.5896   14.0045 -139.8978  -17.5852
  3.760  -63.8605   13.6598  -64.0348   13.5709  -63.9802   13.5518  -62.8205   13.8255  -62.8993   13.9748  -62.9221   13.9702 -147.7699  -17.6395
  3.770  -62.1869   13.6433  -62.3836   13.5552  -62.3272   13.5353  -61.1887   13.8030  -61.2731   13.9777  -61.2962   13.9735 -155.4527  -17.6966
  3.780  -60.5555   13.6630  -60.7761   13.5761  -60.7177   13.5551  -59.5987   13.8149  -59.6890   14.0168  -59.7125   14.0129 -162.8734  -17.7564
  3.790  -58.9668   13.7174  -59.2129   13.6316  -59.1523   13.6096  -58.0508   13.8594  -58.1474   14.0905  -58.1712   14.0869 -169.9592  -17.8189
  3.800  -57.4210   13.8045  -57.6944   13.7200  -57.6314   13.6968  -56.5456   13.9345  -56.6491   14.1969  -56.6732   14.1935 -176.6388  -17.8838
  3.810  -55.9185   13.9224  -56.2212   13.8388  -56.1555   13.8145  -55.0833   14.0379  -55.1945   14.3337  -55.2190   14.3304 -182.8437  -17.9510
  3.820  -54.4597   14.0685  -54.7938   13.9854  -54.7252   13.9599  -53.6644   14.1669  -53.7843   14.4983  -53.8090   14.4951 -188.5100  -18.0203
  3.830  -53.0448   14.2400  -53.4126   14.1568  -53.3406   14.1302  -52.2890   14.3185  -52.4187   14.6879  -52.4436   14.6847 -193.5799  -18.0914
  3.840  -51.6735   14.4337  -52.0773   14.3497  -52.0018   14.3220  -50.9569   14.4894  -51.0975   14.8990  -51.1226   14.8959 -198.0033  -18.1642
  3.850  -50.3452   14.6464  -50.7877   14.5605  -50.7083   14.5317  -49.6672   14.6761  -49.8202   15.1284  -49.8455   15.1253 -201.7393  -18.2383
  3.860  -49.0588   14.8745  -49.5427   14.7855  -49.4589   14.7557  -48.4188   14.8747  -48.5858   15.3723  -48.6112   15.3691 -204.7582  -18.3136
  3.870  -47.8124   15.1144  -48.3405   15.0207  -48.2522   14.9901  -47.2098   15.0815  -47.3925   15.6271  -47.4179   15.6239 -207.0428  -18.3897
  3.880  -46.6037   15.3627  -47.1790   15.2625  -47.0857   15.2313  -46.0376   15.2930  -46.2378   15.8893  -46.2632   15.8860 -208.5906  -18.4663
  3.890  -45.4295   15.6163  -46.0552   15.5073  -45.9564   15.4757  -44.8989   15.5056  -45.1187   16.1556  -45.1441   16.1523 -209.4154  -18.5433
  3.900  -44.2861   15.8723  -44.9654   15.7520  -44.8609   15.7202  -43.7898   15.7165  -44.0314   16.4233  -44.0567   16.4200 -209.5494  -18.6203
  3.910  -43.1691   16.1287  -43.9054   15.9941  -43.7947   15.9625  -42.7058   15.9232  -42.9716   16.6902  -42.9968   16.6868 -209.0463  -18.6971
  3.920  -42.0738   16.3839  -42.8705   16.2316  -42.7534   16.2005  -41.6420   16.1239  -41.9347   16.9549  -41.9596   16.9515 -207.9843  -18.7735
  3.930  -40.9949   16.6374  -41.8558   16.4634  -41.7318   16.4332  -40.5929   16.3177  -40.9155   17.2167  -40.9402   17.2132 -206.4708  -18.8494
  3.940  -39.9272   16.8893  -40.8559   16.6890  -40.7248   16.6601  -39.5531   16.5044  -39.9088   17.4757  -39.9333   17.4723 -204.6482  -18.9246
  3.950  -38.8653   17.1408  -39.8656   16.9089  -39.7271   16.8817  -38.5170   16.6846  -38.9096   17.7331  -38.9337   17.7296 -202.7017  -18.9991
  3.960  -37.8040   17.3939  -38.8797   17.1242  -38.7335   17.0993  -37.4789   16.8597  -37.9126   17.9907  -37.9364   17.9873 -200.8680  -19.0729
  3.970  -36.7383   17.6514  -37.8931   17.3368  -37.7388   17.3146  -36.4334   17.0318  -36.9131   18.2513  -36.9366   18.2478 -199.4464  -19.1462
  3.980  -35.6637   17.9169  -36.9009   17.5493  -36.7383   17.5302  -35.3754   17.2039  -35.9067   18.5181  -35.9299   18.5146 -198.8095  -19.2193
  3.990  -34.5758   18.1948  -35.8984   17.7646  -35.7274   17.7492  -34.2996   17.3792  -34.8892   18.7953  -34.9121   18.7918 -199.4135  -19.2926
  4.000  -33.4712   18.4900  -34.8814   17.9864  -34.7016   17.9753  -33.2015   17.5618  -33.8572   19.0875  -33.8796   19.0839 -201.8057  -19.3667
  4.010  -32.3468   18.8082  -33.8457   18.2188  -33.6567   18.2125  -32.0765   17.7563  -32.8074   19.3999  -32.8295   19.3961 -206.6285  -19.4427
  4.020  -31.2002   19.1552  -32.7872   18.4661  -32.5889   18.4652  -30.9202   17.9675  -31.7373   19.7379  -31.7590   19.7339 -214.6164  -19.5215
  4.030  -30.0298   19.5374  -31.7020   18.7334  -31.4939   18.7384  -29.7285   18.2010  -30.6447   20.1074  -30.6660   20.1030 -226.5865  -19.6048
  4.040  -28.8347   19.9614  -30.5862   19.0259  -30.3679   19.0376  -28.4972   18.4628  -29.5281   20.5148  -29.5489   20.5098 -243.4205  -19.6943
  4.050  -27.6148   20.4335  -29.4356   19.3499  -29.2066   19.3689  -27.2223   18.7594  -28.3861   20.9663  -28.4063   20.9606 -266.0343  -19.7920
  4.060  -26.3706   20.9598  -28.2457   19.7120  -28.0055   19.7392  -25.8996   19.0981  -27.2178   21.4686  -27.2373   21.4616 -295.3325  -19.9006
  4.070  -25.1029   21.5454  -27.0118   20.1204  -26.7596   20.1566  -24.5248   19.4870  -26.0223   22.0278  -26.0408   22.0193 -332.1390  -20.0226
  4.080  -23.8121   22.1945  -25.7288   20.5846  -25.4637   20.6307  -23.0934   19.9354  -24.7982   22.6505  -24.8152   22.6398 -377.0975  -20.1612
  4.090  -22.4969   22.9093  -24.3910   21.1160  -24.1121   21.1735  -21.6006   20.4535  -23.5430   23.3428  -23.5577   23.3292 -430.5412  -20.3194
  4.100  -21.1525   23.6917  -22.9927   21.7289  -22.6987   21.7993  -20.0413   21.0536  -22.2515   24.1117  -22.2628   24.0947 -492.3396  -20.5004
  4.110  -19.7681   24.5441  -21.5285   22.4412  -21.2179   22.5265  -18.4104   21.7497  -20.9151   24.9669  -20.9211   24.9459 -561.7507  -20.7068
  4.120  -18.3258   25.4743  -19.9939   23.2749  -19.6650   23.3777  -16.7023   22.5586  -19.5210   25.9234  -19.5193   25.8985 -637.3156  -20.9410
  4.130  -16.8010   26.5006  -18.3864   24.2575  -18.0374   24.3812  -14.9114   23.5003  -18.0537   27.0064  -18.0414   26.9786 -716.8343  -21.2044
  4.140  -15.1677   27.6576  -16.7077   25.4224  -16.3366   25.5717  -13.0321   24.5990  -16.4993   28.2552  -16.4734   28.2264 -797.4464  -21.4975
  4.150  -13.4057   28.9986  -14.9652   26.8098  -14.5704   26.9903  -11.0599   25.8842  -14.8529   29.7247  -14.8103   29.6986 -875.8080  -21.8193
  4.160  -11.5091   30.5934  -13.1756   28.4658  -12.7559   28.6853   -8.9911   27.3918  -13.1255   31.4837  -13.0643   31.4651 -948.3397  -22.1679
  4.170   -9.4916   32.5237  -11.3677   30.4422  -10.9233   30.7103   -6.8251   29.1664  -11.3508   33.6098  -11.2706   33.6050 *********  -22.5396
  4.180   -7.3886   34.8782   -9.5867   32.7938   -9.1195   33.1222   -4.5653   31.2627   -9.5886   36.1838   -9.4908   36.1995 *********  -22.9299
  4.190   -5.2584   37.7512   -7.8973   35.5751   -7.4125   35.9775   -2.2225   33.7486   -7.9282   39.2842   -7.8165   39.3270 *********  -23.3334
  4.200   -3.1870   41.2420   -6.3875   38.8341   -5.8944   39.3258    0.1805   36.7082   -6.4924   42.9808   -6.3728   43.0570 *********  -23.7441
  4.210   -1.2978   45.4547   -5.1700   42.6053   -4.6835   43.2024    2.6020   40.2449   -5.4429   47.3266   -5.3236   47.4408 *********  -24.1563
  4.220    0.2336   50.4912   -4.3819   46.9005   -3.9241   47.6186    4.9702   44.4843   -4.9868   52.3432   -4.8779   52.4980 *********  -24.5652
  4.230    1.1592   56.4335   -4.1816   51.6990   -3.7830   52.5505    7.1662   49.5744   -5.3799   57.9983   -5.2933   58.1933 *********  -24.9675
  4.240    1.1418   63.3079   -4.7417   56.9377   -4.4425   57.9280    8.9990   55.6807   -6.9220   64.1712   -6.8703   64.4022 *********  -25.3622
  4.250   -0.2482   71.0257   -6.2391   62.5028   -6.0886   63.6254   10.1716   62.9677   -9.9308   70.6089   -9.9260   70.8669 *********  -25.7504
  4.260   -3.4974   79.3036   -8.8427   68.2249   -8.8963   69.4548   10.2382   71.5551  -14.6808   76.8822  -14.7322   77.1529 *********  -26.1355
  4.270   -9.0510   87.5901  -12.7037   73.8743  -13.0155   75.1615    8.5685   81.4295  -21.2937   82.3719  -21.4050   82.6371 *********  -26.5217
  4.280  -17.1448   95.0541  -17.9450   79.1492  -18.5550   80.4148    4.3537   92.2924  -29.5987   86.3371  -29.7656   86.5769 *********  -26.9133
  4.290  -27.6251  100.6963  -24.6343   83.6488  -25.5516   84.7888   -3.2676  103.3562  -39.0354   88.1000  -39.2454   88.2978 *********  -27.3138
  4.300  -39.8559  103.5796  -32.7094   86.8494  -33.8944   87.7504  -14.8724  113.1876  -48.7119   87.3018  -48.9466   87.4482 *********  -27.7245
  4.310  -52.7805  103.0865  -41.8452   88.1498  -43.2027   88.7184  -30.2143  119.8394  -57.6538   84.0733  -57.8934   84.1676 *********  -28.1444
  4.320  -65.1121   99.1156  -51.3478   87.0657  -52.7428   87.2619  -47.8022  121.4990  -65.1135   78.9801  -65.3417   79.0297 *********  -28.5698
  4.330  -75.6218   92.1715  -60.2508   83.5186  -61.5474   83.3730  -65.1437  117.4477  -70.7435   72.7833  -70.9502   72.8000 *********  -28.9951
  4.340  -83.4773   83.2663  -67.6573   77.9749  -68.7589   77.5729  -79.7658  108.5512  -74.5664   66.1890  -74.7477   66.1853 *********  -29.4131
  4.350  -88.4568   73.5927  -73.0803   71.2601  -73.9474   70.7065  -90.2510   96.7664  -76.8302   59.7123  -76.9871   59.6986 *********  -29.8155
  4.360  -90.8771   64.1512  -76.5177   64.2088  -77.1586   63.5952  -96.4885   84.1434  -77.8633   53.6609  -77.9994   53.6448 *********  -30.1939
  4.370  -91.3292   55.5601  -78.2828   57.4240  -78.7320   56.8144  -99.2148   72.1417  -77.9828   48.1800  -78.1027   48.1660 -943.1807  -30.5405
  4.380  -90.4282   48.0793  -78.7905   51.2329  -79.0901   50.6639  -99.4261   61.5067  -77.4548   43.3091  -77.5627   43.2993 -839.4022  -30.8490
  4.390  -88.6811   41.7304  -78.4230   45.7546  -78.6119   45.2429  -98.0179   52.4591  -76.4855   39.0279  -76.5849   39.0232 -724.0241  -31.1151
  4.400  -86.4556   36.4131  -77.4798   40.9864  -77.5898   40.5364  -95.6615   44.9300  -75.2277   35.2869  -75.3212   35.2873 -604.0270  -31.3370
  4.410  -83.9979   31.9836  -76.1768   36.8683  -76.2322   36.4775  -92.8122   38.7291  -73.7912   32.0260  -73.8808   32.0313 -486.6937  -31.5159
  4.420  -81.4639   28.2944  -74.6627   33.3201  -74.6811   32.9827  -89.7590   33.6376  -72.2536   29.1844  -72.3406   29.1939 -378.5172  -31.6550
  4.430  -78.9483   25.2135  -73.0367   30.2606  -73.0306   29.9700  -86.6765   29.4513  -70.6686   26.7051  -70.7540   26.7184 -284.2712  -31.7595
  4.440  -76.5052   22.6288  -71.3643   27.6157  -71.3423   27.3652  -83.6649   25.9954  -69.0729   24.5371  -69.1575   24.5538 -206.5015  -31.8353
  4.450  -74.1636   20.4484  -69.6875   25.3211  -69.6558   25.1045  -80.7782   23.1268  -67.4912   22.6363  -67.5755   22.6559 -145.5424  -31.8888
  4.460  -71.9367   18.5983  -68.0332   23.3222  -67.9958   23.1341  -78.0418   20.7307  -65.9396   20.9645  -66.0239   20.9867  -99.9758  -31.9256
  4.470  -69.8285   17.0187  -66.4179   21.5736  -66.3774   21.4094  -75.4642   18.7160  -64.4282   19.4892  -64.5128   19.5138  -67.3233  -31.9503
  4.480  -67.8371   15.6621  -64.8511   20.0373  -64.8094   19.8930  -73.0445   17.0108  -62.9630   18.1830  -63.0481   18.2097  -44.7377  -31.9668
  4.490  -65.9576   14.4902  -63.3382   18.6818  -63.2964   18.5542  -70.7761   15.5581  -61.5472   17.0225  -61.6330   17.0512  -29.5299  -31.9776
  4.500  -64.1838   13.4721  -61.8811   17.4809  -61.8399   17.3672  -68.6500   14.3129  -60.1818   15.9880  -60.2684   16.0186  -19.4652  -31.9848
  4.510  -62.5084   12.5832  -60.4802   16.4129  -60.4399   16.3108  -66.6559   13.2392  -58.8667   15.0629  -58.9542   15.0953  -12.8546  -31.9895
  4.520  -60.9242   11.8031  -59.1345   15.4596  -59.0953   15.3672  -64.7832   12.3080  -57.6009   14.2331  -57.6894   14.2671   -8.5105  -31.9926
  4.530  -59.4242   11.1153  -57.8421   14.6056  -57.8040   14.5213  -63.0219   11.4964  -56.3827   13.4864  -56.4723   13.5221   -5.6406  -31.9947
  4.540  -58.0016   10.5063  -56.6008   13.8381  -56.5638   13.7605  -61.3624   10.7853  -55.2101   12.8126  -55.3010   12.8499   -3.7327  -31.9961
  4.550  -56.6501    9.9650  -55.4081   13.1462  -55.3720   13.0742  -59.7957   10.1595  -54.0810   12.2030  -54.1732   12.2419   -2.4591  -31.9970
  4.560  -55.3641    9.4820  -54.2614   12.5206  -54.2261   12.4532  -58.3138    9.6065  -52.9933   11.6501  -53.0868   11.6906   -1.6089  -31.9975
  4.570  -54.1381    9.0496  -53.1582   11.9535  -53.1234   11.8900  -56.9092    9.1158  -51.9445   11.1473  -52.0396   11.1894   -1.0438  -31.9979
  4.580  -52.9674    8.6613  -52.0958   11.4381  -52.0613   11.3778  -55.5753    8.6790  -50.9326   10.6893  -51.0292   10.7330   -0.6711  -31.9982
  4.590  -51.8476    8.3117  -51.0718   10.9686  -51.0375   10.9109  -54.3060    8.2887  -49.9553   10.2710  -50.0536   10.3163   -0.4277  -31.9983
  4.600  -50.7747    7.9961  -50.0838   10.5401  -50.0494   10.4845  -53.0958    7.9391  -49.0106    9.8885  -49.1108    9.9354   -0.2705  -31.9984
  4.610  -49.7450    7.7105  -49.1297   10.1483  -49.0950   10.0943  -51.9398    7.6250  -48.0967    9.5380  -48.1986    9.5865   -0.1703  -31.9985
  4.620  -48.7551    7.4517  -48.2072    9.7893  -48.1720    9.7367  -50.8337    7.3423  -47.2115    9.2163  -47.3154    9.2666   -0.1072  -31.9985
  4.630  -47.8022    7.2167  -47.3144    9.4599  -47.2786    9.4083  -49.7733    7.0872  -46.3534    8.9208  -46.4594    8.9728   -0.0683  -31.9986
  4.640  -46.8835    7.0031  -46.4495    9.1574  -46.4128    9.1065  -48.7550    6.8568  -45.5207    8.6490  -45.6289    8.7027   -0.0450  -31.9986
  4.650  -45.9964    6.8088  -45.6108    8.8792  -45.5730    8.8288  -47.7757    6.6482  -44.7119    8.3987  -44.8224    8.4542   -0.0318  -31.9986
  4.660  -45.1386    6.6318  -44.7965    8.6230  -44.7575    8.5730  -46.8323    6.4594  -43.9255    8.1681  -44.0384    8.2255   -0.0256  -31.9986
  4.670  -44.3082    6.4706  -44.0052    8.3871  -43.9648    8.3372  -45.9220    6.2883  -43.1602    7.9556  -43.2756    8.0149   -0.0244  -31.9986
  4.680  -43.5032    6.3238  -43.2355    8.1698  -43.1935    8.1198  -45.0426    6.1331  -42.4146    7.7597  -42.5328    7.8209   -0.0275  -31.9986
  4.690  -42.7218    6.1902  -42.4861    7.9694  -42.4423    7.9192  -44.1916    5.9926  -41.6877    7.5791  -41.8086    7.6422   -0.0347  -31.9986
  4.700  -41.9624    6.0687  -41.7557    7.7848  -41.7100    7.7343  -43.3671    5.8653  -40.9783    7.4126  -41.1021    7.4778   -0.0465  -31.9987
  4.710  -41.2235    5.9584  -41.0432    7.6147  -40.9954    7.5638  -42.5672    5.7503  -40.2853    7.2593  -40.4122    7.3265   -0.0640  -31.9987
  4.720  -40.5038    5.8585  -40.3475    7.4582  -40.2974    7.4067  -41.7902    5.6464  -39.6077    7.1182  -39.7379    7.1876   -0.0888  -31.9987
  4.730  -39.8020    5.7683  -39.6676    7.3142  -39.6151    7.2621  -41.0345    5.5530  -38.9447    6.9887  -39.0782    7.0602   -0.1233  -31.9988
  4.740  -39.1170    5.6872  -39.0025    7.1821  -38.9474    7.1292  -40.2986    5.4692  -38.2953    6.8698  -38.4324    6.9437   -0.1706  -31.9988
  4.750  -38.4476    5.6146  -38.3513    7.0610  -38.2935    7.0074  -39.5812    5.3944  -37.6587    6.7611  -37.7996    6.8373   -0.2348  -31.9989
  4.760  -37.7928    5.5501  -37.7133    6.9503  -37.6525    6.8959  -38.8810    5.3282  -37.0342    6.6620  -37.1790    6.7406   -0.3214  -31.9990
  4.770  -37.1517    5.4932  -37.0876    6.8496  -37.0237    6.7942  -38.1969    5.2699  -36.4209    6.5720  -36.5699    6.6531   -0.4373  -31.9992
  4.780  -36.5234    5.4436  -36.4735    6.7582  -36.4063    6.7018  -37.5278    5.2192  -35.8183    6.4907  -35.9716    6.5743   -0.5913  -31.9994
  4.790  -35.9071    5.4011  -35.8702    6.6758  -35.7995    6.6184  -36.8727    5.1758  -35.2257    6.4177  -35.3835    6.5039   -0.7946  -31.9997
  4.800  -35.3019    5.3653  -35.2772    6.6020  -35.2028    6.5434  -36.2307    5.1393  -34.6423    6.3526  -34.8049    6.4416   -1.0611  -32.0001
  4.810  -34.7073    5.3360  -34.6938    6.5365  -34.6155    6.4767  -35.6009    5.1096  -34.0677    6.2953  -34.2354    6.3871   -1.4081  -32.0006
  4.820  -34.1225    5.3131  -34.1194    6.4789  -34.0370    6.4179  -34.9824    5.0863  -33.5013    6.2454  -33.6743    6.3401   -1.8570  -32.0013
  4.830  -33.5468    5.2965  -33.5534    6.4290  -33.4667    6.3667  -34.3745    5.0693  -32.9425    6.2028  -33.1210    6.3005   -2.4337  -32.0022
  4.840  -32.9797    5.2859  -32.9953    6.3867  -32.9041    6.3231  -33.7765    5.0585  -32.3908    6.1673  -32.5752    6.2681   -3.1695  -32.0033
  4.850  -32.4206    5.2815  -32.4446    6.3518  -32.3486    6.2868  -33.1877    5.0538  -31.8456    6.1387  -32.0363    6.2428   -4.1021  -32.0048
  4.860  -31.8689    5.2830  -31.9008    6.3241  -31.7997    6.2577  -32.6074    5.0551  -31.3067    6.1171  -31.5039    6.2245   -5.2761  -32.0068
  4.870  -31.3241    5.2905  -31.3634    6.3036  -31.2571    6.2357  -32.0351    5.0624  -30.7734    6.1023  -30.9776    6.2132   -6.7437  -32.0093
  4.880  -30.7857    5.3041  -30.8320    6.2902  -30.7201    6.2208  -31.4701    5.0757  -30.2453    6.0943  -30.4568    6.2087   -8.5659  -32.0124
  4.890  -30.2534    5.3237  -30.3063    6.2840  -30.1884    6.2129  -30.9119    5.0950  -29.7221    6.0931  -29.9414    6.2113  -10.8128  -32.0164
  4.900  -29.7266    5.3494  -29.7857    6.2847  -29.6616    6.2120  -30.3599    5.1204  -29.2033    6.0988  -29.4308    6.2207  -13.5644  -32.0214
  4.910  -29.2049    5.3814  -29.2699    6.2927  -29.1393    6.2183  -29.8137    5.1519  -28.6885    6.1113  -28.9247    6.2373  -16.9107  -32.0276
  4.920  -28.6879    5.4196  -28.7586    6.3078  -28.6210    6.2317  -29.2728    5.1897  -28.1773    6.1308  -28.4227    6.2609  -20.9519  -32.0353
  4.930  -28.1753    5.4644  -28.2513    6.3302  -28.1064    6.2523  -28.7367    5.2338  -27.6694    6.1573  -27.9247    6.2918  -25.7983  -32.0448
  4.940  -27.6668    5.5158  -27.7479    6.3600  -27.5952    6.2803  -28.2050    5.2846  -27.1645    6.1912  -27.4302    6.3301  -31.5696  -32.0564
  4.950  -27.1619    5.5740  -27.2479    6.3974  -27.0871    6.3158  -27.6773    5.3421  -26.6621    6.2324  -26.9389    6.3760  -38.3939  -32.0705
  4.960  -26.6605    5.6393  -26.7511    6.4425  -26.5816    6.3590  -27.1532    5.4066  -26.1620    6.2812  -26.4507    6.4297  -46.4062  -32.0875
  4.970  -26.1621    5.7120  -26.2573    6.4956  -26.0785    6.4101  -26.6323    5.4783  -25.6639    6.3379  -25.9653    6.4915  -55.7464  -32.1080
  4.980  -25.6667    5.7922  -25.7662    6.5569  -25.5776    6.4693  -26.1143    5.5575  -25.1675    6.4028  -25.4824    6.5616  -66.5568  -32.1325
  4.990  -25.1738    5.8803  -25.2775    6.6266  -25.0785    6.5370  -25.5988    5.6445  -24.6724    6.4760  -25.0019    6.6403  -78.9788  -32.1615
  5.000  -24.6835    5.9767  -24.7912    6.7052  -24.5810    6.6134  -25.0855    5.7397  -24.1785    6.5580  -24.5236    6.7280  -93.1496  -32.1957
  5.010  -24.1954    6.0816  -24.3070    6.7928  -24.0850    6.6989  -24.5742    5.8434  -23.6855    6.6492  -24.0473    6.8250 -109.1985  -32.2359
  5.020  -23.7094    6.1955  -23.8249    6.8899  -23.5901    6.7937  -24.0646    5.9561  -23.1931    6.7499  -23.5730    6.9318 -127.2423  -32.2826
  5.030  -23.2255    6.3187  -23.3447    6.9968  -23.0963    6.8984  -23.5565    6.0782  -22.7012    6.8605  -23.1006    7.0488 -147.3817  -32.3368
  5.040  -22.7436    6.4517  -22.8663    7.1139  -22.6033    7.0133  -23.0496    6.2101  -22.2096    6.9816  -22.6301    7.1765 -169.6976  -32.3991
  5.050  -22.2636    6.5949  -22.3899    7.2417  -22.1111    7.1387  -22.5437    6.3524  -21.7181    7.1136  -22.1615    7.3153 -194.2476  -32.4705
  5.060  -21.7857    6.7487  -21.9154    7.3805  -21.6196    7.2753  -22.0388    6.5055  -21.2265    7.2572  -21.6950    7.4659 -221.0640  -32.5518
  5.070  -21.3098    6.9135  -21.4429    7.5309  -21.1287    7.4234  -21.5346    6.6701  -20.7349    7.4127  -21.2305    7.6286 -250.1535  -32.6437
  5.080  -20.8361    7.0899  -20.9726    7.6932  -20.6383    7.5835  -21.0312    6.8467  -20.2430    7.5810  -20.7685    7.8042 -281.4975  -32.7471
  5.090  -20.3648    7.2781  -20.5046    7.8679  -20.1486    7.7561  -20.5283    7.0359  -19.7508    7.7626  -20.3090    7.9931 -315.0560  -32.8629
  5.100  -19.8960    7.4785  -20.0391    8.0554  -19.6594    7.9416  -20.0260    7.2383  -19.2583    7.9581  -19.8526    8.1959 -350.7724  -32.9918
  5.110  -19.4300    7.6914  -19.5766    8.2560  -19.1707    8.1405  -19.5243    7.4545  -18.7654    8.1682  -19.3996    8.4132 -388.5807  -33.1346
  5.120  -18.9671    7.9172  -19.1172    8.4700  -18.6826    8.3533  -19.0231    7.6853  -18.2722    8.3937  -18.9506    8.6454 -428.4136  -33.2921
  5.130  -18.5074    8.1559  -18.6613    8.6977  -18.1951    8.5802  -18.5224    7.9312  -17.7786    8.6353  -18.5061    8.8930 -470.2100  -33.4649
  5.140  -18.0511    8.4076  -18.2092    8.9391  -17.7079    8.8218  -18.0220    8.1928  -17.2844    8.8938  -18.0669    9.1563 -513.9210  -33.6537
  5.150  -17.5983    8.6722  -17.7611    9.1943  -17.2208    9.0783  -17.5220    8.4710  -16.7897    9.1699  -17.6336    9.4356 -559.5093  -33.8594
  5.160  -17.1488    8.9495  -17.3173    9.4632  -16.7334    9.3501  -17.0219    8.7663  -16.2940    9.4646  -17.2070    9.7310 -606.9419  -34.0824
  5.170  -16.7024    9.2392  -16.8775    9.7454  -16.2451    9.6377  -16.5215    9.0797  -15.7972    9.7790  -16.7879   10.0424 -656.1712  -34.3235
  5.180  -16.2583    9.5410  -16.4415   10.0407  -15.7548    9.9416  -16.0201    9.4120  -15.2988   10.1141  -16.3768   10.3695 -707.1040  -34.5834
  5.190  -15.8151    9.8546  -16.0085   10.3488  -15.2613   10.2627  -15.5168    9.7646  -14.7979   10.4717  -15.9744   10.7120 -759.5581  -34.8625
  5.200  -15.3711   10.1799  -15.5774   10.6694  -14.7628   10.6023  -15.0106   10.1389  -14.2938   10.8535  -15.5808   11.0690 -813.2108  -35.1614
  5.210  -14.9234   10.5171  -15.1460   11.0024  -14.2571   10.9622  -14.5001   10.5373  -13.7855   11.2623  -15.1958   11.4397 -867.5441  -35.4802
  5.220  -14.4684   10.8675  -14.7119   11.3485  -13.7417   11.3456  -13.9836   10.9629  -13.2719   11.7014  -14.8187   11.8232 -921.7984  -35.8189
  5.230  -14.0018   11.2337  -14.2715   11.7093  -13.2141   11.7567  -13.4595   11.4200  -12.7522   12.1756  -14.4480   12.2187 -974.9443  -36.1772
  5.240  -13.5184   11.6203  -13.8210   12.0879  -12.6719   12.2014  -12.9266   11.9148  -12.2264   12.6909  -14.0811   12.6257 *********  -36.5542
  5.250  -13.0133   12.0351  -13.3563   12.4895  -12.1139   12.6878  -12.3848   12.4550  -11.6954   13.2548  -13.7146   13.0447 *********  -36.9483
  5.260  -12.4832   12.4890  -12.8740   12.9219  -11.5407   13.2256  -11.8362   13.0506  -11.1629   13.8762  -13.3442   13.4777 *********  -37.3576
  5.270  -11.9280   12.9966  -12.3731   13.3957  -10.9556   13.8262  -11.2863   13.7129  -10.6352   14.5646  -12.9649   13.9290 *********  -37.7794
  5.280  -11.3533   13.5746  -11.8560   13.9233  -10.3660   14.5011  -10.7456   14.4528  -10.1229   15.3288  -12.5724   14.4053 *********  -38.2105
  5.290  -10.7717   14.2388  -11.3301   14.5173   -9.7833   15.2608  -10.2293   15.2790   -9.6404   16.1751  -12.1639   14.9168 *********  -38.6471
  5.300  -10.2025   15.0006  -10.8075   15.1880   -9.2221   16.1129   -9.7567   16.1946   -9.2045   17.1049  -11.7398   15.4756 *********  -39.0855
  5.310   -9.6688   15.8635  -10.3034   15.9410   -8.6996   17.0604   -9.3477   17.1957   -8.8323   18.1140  -11.3049   16.0952 *********  -39.5214
  5.320   -9.1923   16.8226   -9.8331   16.7772   -8.2323   18.1023   -9.0187   18.2721   -8.5378   19.1935  -10.8682   16.7886 *********  -39.9510
  5.330   -8.7897   17.8670   -9.4098   17.6934   -7.8352   19.2338   -8.7806   19.4100   -8.3303   20.3319  -10.4431   17.5663 *********  -40.3708
  5.340   -8.4711   18.9842   -9.0439   18.6852   -7.5205   20.4486   -8.6383   20.5963   -8.2146   21.5188  -10.0458   18.4356 *********  -40.7777
  5.350   -8.2419   20.1638   -8.7434   19.7487   -7.2986   21.7408   -8.5927   21.8211   -8.1929   22.7463   -9.6939   19.4002 *********  -41.1694
  5.360   -8.1054   21.3991   -8.5156   20.8815   -7.1791   23.1053   -8.6446   23.0789   -8.2676   24.0099   -9.4058   20.4606 *********  -41.5440
  5.370   -8.0659   22.6866   -8.3692   22.0827   -7.1727   24.5382   -8.7963   24.3669   -8.4429   25.3073   -9.2003   21.6141 -970.8539  -41.9008
  5.380   -8.1307   24.0246   -8.3151   23.3516   -7.2923   26.0353   -9.0540   25.6837   -8.7266   26.6367   -9.0959   22.8556 -921.4037  -42.2394
  5.390   -8.3104   25.4110   -8.3669   24.6867   -7.5540   27.5911   -9.4273   27.0265   -9.1297   27.9948   -9.1117   24.1771 -872.7453  -42.5601
  5.400   -8.6193   26.8416   -8.5411   26.0840   -7.9766   29.1966   -9.9289   28.3900   -9.6660   29.3751   -9.2668   25.5677 -826.0887  -42.8637
  5.410   -9.0742   28.3080   -8.8565   27.5357   -8.5810   30.8378  -10.5736   29.7641  -10.3511   30.7666   -9.5806   27.0126 -782.2741  -43.1512
  5.420   -9.6936   29.7968   -9.3333   29.0293   -9.3889   32.4940  -11.3762   31.1338  -11.2008   32.1527  -10.0717   28.4928 -741.7849  -43.4238
  5.430  -10.4953   31.2885   -9.9919   30.5461  -10.4203   34.1369  -12.3506   32.4780  -12.2294   33.5109  -10.7574   29.9838 -704.7912  -43.6828
  5.440  -11.4955   32.7566  -10.8512   32.0609  -11.6915   35.7298  -13.5072   33.7700  -13.4473   34.8126  -11.6517   31.4559 -671.2122  -43.9295
  5.450  -12.7054   34.1681  -11.9261   33.5413  -13.2111   37.2285  -14.8509   34.9778  -14.8595   36.0238  -12.7640   32.8735 -640.7847  -44.1650
  5.460  -14.1295   35.4843  -13.2255   34.9483  -14.9777   38.5825  -16.3796   36.0656  -16.4628   37.1064  -14.0961   34.1963 -613.1298  -44.3903
  5.470  -15.7629   36.6623  -14.7492   36.2380  -16.9766   39.7381  -18.0818   36.9956  -18.2447   38.0205  -15.6409   35.3807 -587.8103  -44.6063
  5.480  -17.5898   37.6581  -16.4862   37.3634  -19.1781   40.6428  -19.9365   37.7310  -20.1817   38.7274  -17.3800   36.3827 -564.3762  -44.8137
  5.490  -19.5822   38.4297  -18.4124   38.2782  -21.5373   41.2502  -21.9124   38.2390  -22.2398   39.1926  -19.2835   37.1609 -542.3975  -45.0130
  5.500  -21.7006   38.9413  -20.4913   38.9410  -23.9959   41.5251  -23.9693   38.4941  -24.3753   39.3899  -21.3099   37.6812 -521.4868  -45.2047
  5.510  -23.8957   39.1671  -22.6748   39.3198  -26.4860   41.4487  -26.0606   38.4805  -26.5378   39.3041  -23.4090   37.9197 -501.3108  -45.3889
  5.520  -26.1122   39.0946  -24.9063   39.3951  -28.9363   41.0207  -28.1363   38.1948  -28.6735   38.9330  -25.5248   37.8663 -481.5968  -45.5659
  5.530  -28.2927   38.7253  -27.1258   39.1629  -31.2780   40.2599  -30.1469   37.6458  -30.7295   38.2882  -27.6005   37.5253 -462.1329  -45.7357
  5.540  -30.3828   38.0755  -29.2744   38.6351  -33.4510   39.2021  -32.0473   36.8540  -32.6582   37.3940  -29.5834   36.9156 -442.7654  -45.8984
  5.550  -32.3351   37.1737  -31.2995   37.8373  -35.4085   37.8954  -33.7997   35.8491  -34.4208   36.2845  -31.4286   36.0676 -423.3944  -46.0540
  5.560  -34.1123   36.0577  -33.1585   36.8065  -37.1196   36.3954  -35.3759   34.6677  -35.9892   35.0005  -33.1020   35.0201 -403.9675  -46.2025
  5.570  -35.6888   34.7707  -34.8209   35.5867  -38.5689   34.7595  -36.7577   33.3495  -37.3466   33.5858  -34.5814   33.8163 -384.4733  -46.3438
  5.580  -37.0508   33.3573  -36.2692   34.2242  -39.7557   33.0424  -37.9372   31.9341  -38.4875   32.0835  -35.8566   32.4999 -364.9344  -46.4779
  5.590  -38.1950   31.8607  -37.4976   32.7646  -40.6906   31.2924  -38.9151   30.4592  -39.4157   30.5333  -36.9272   31.1118 -345.4001  -46.6048
  5.600  -39.1271   30.3196  -38.5100   31.2493  -41.3926   29.5501  -39.6989   28.9580  -40.1422   28.9701  -37.8012   29.6881 -325.9392  -46.7246
  5.610  -39.8594   28.7676  -39.3181   29.7140  -41.8859   27.8470  -40.3016   27.4587  -40.6831   27.4223  -38.4922   28.2591 -306.6339  -46.8373
  5.620  -40.4084   27.2319  -39.9383   28.1880  -42.1969   26.2066  -40.7392   25.9842  -41.0575   25.9124  -39.0173   26.8486 -287.5731  -46.9430
  5.630  -40.7931   25.7337  -40.3901   26.6939  -42.3524   24.6443  -41.0294   24.5519  -41.2857   24.4567  -39.3953   25.4746 -268.8474  -47.0418
  5.640  -41.0335   24.2884  -40.6936   25.2480  -42.3779   23.1697  -41.1905   23.1746  -41.3879   23.0666  -39.6451   24.1495 -250.5443  -47.1338
  5.650  -41.1491   22.9068  -40.8690   23.8616  -42.2968   21.7869  -41.2403   21.8610  -41.3834   21.7489  -39.7847   22.8816 -232.7450  -47.2194
  5.660  -41.1583   21.5954  -40.9349   22.5418  -42.1294   20.4965  -41.1953   20.6161  -41.2898   20.5070  -39.8307   21.6753 -215.5216  -47.2986
  5.670  -41.0782   20.3578  -40.9085   21.2922  -41.8935   19.2964  -41.0710   19.4425  -41.1228   19.3417  -39.7978   20.5328 -198.9355  -47.3717
  5.680  -40.9240   19.1948  -40.8048   20.1138  -41.6038   18.1824  -40.8808   18.3406  -40.8960   18.2517  -39.6988   19.4539 -183.0367  -47.4389
  5.690  -40.7090   18.1057  -40.6371   19.0062  -41.2727   17.1496  -40.6370   17.3092  -40.6213   17.2346  -39.5448   18.4375 -167.8635  -47.5006
  5.700  -40.4447   17.0883  -40.4168   17.9674  -40.9101   16.1925  -40.3498   16.3460  -40.3087   16.2870  -39.3453   17.4815 -153.4433  -47.5570
  5.710  -40.1410   16.1397  -40.1535   16.9948  -40.5239   15.3054  -40.0283   15.4481  -39.9665   15.4049  -39.1081   16.5835 -139.7934  -47.6084
  5.720  -39.8064   15.2562  -39.8555   16.0853  -40.1207   14.4829  -39.6800   14.6120  -39.6017   14.5844  -38.8401   15.7405 -126.9222  -47.6550
  5.730  -39.4480   14.4341  -39.5298   15.2357  -39.7055   13.7198  -39.3114   13.8339  -39.2200   13.8212  -38.5471   14.9499 -114.8304  -47.6972
  5.740  -39.0716   13.6694  -39.1824   14.4424  -39.2824   13.0112  -38.9277   13.1102  -38.8262   13.1112  -38.2340   14.2086 -103.5127  -47.7353
  5.750  -38.6821   12.9582  -38.8183   13.7020  -38.8548   12.3526  -38.5334   12.4371  -38.4242   12.4507  -37.9049   13.5138  -92.9582  -47.7694
  5.760  -38.2837   12.2968  -38.4417   13.0112  -38.4251   11.7401  -38.1322   11.8108  -38.0171   11.8358  -37.5635   12.8627  -83.1521  -47.8000
  5.770  -37.8797   11.6813  -38.0563   12.3665  -37.9956   11.1698  -37.7271   11.2279  -37.6077   11.2631  -37.2128   12.2527  -74.0761  -47.8272
  5.780  -37.4728   11.1085  -37.6650   11.7648  -37.5680   10.6384  -37.3205   10.6851  -37.1980   10.7293  -36.8556   11.6811  -65.7093  -47.8514
  5.790  -37.0654   10.5749  -37.2703   11.2032  -37.1436   10.1428  -36.9145   10.1793  -36.7896   10.2314  -36.4940   11.1455  -58.0284  -47.8727
  5.800  -36.6591   10.0775  -36.8744   10.6787  -36.7234    9.6802  -36.5105    9.7076  -36.3842    9.7667  -36.1299   10.6435  -51.0080  -47.8914
  5.810  -36.2555    9.6136  -36.4790   10.1887  -36.3084    9.2479  -36.1099    9.2674  -35.9826    9.3325  -35.7651   10.1728  -44.6212  -47.9078
  5.820  -35.8557    9.1805  -36.0854    9.7306  -35.8993    8.8437  -35.7137    8.8561  -35.5858    8.9266  -35.4008    9.7313  -38.8389  -47.9221
  5.830  -35.4606    8.7757  -35.6950    9.3021  -35.4966    8.4654  -35.3226    8.4716  -35.1945    8.5466  -35.0382    9.3170  -33.6311  -47.9345
  5.840  -35.0710    8.3972  -35.3085    8.9009  -35.1006    8.1110  -34.9373    8.1116  -34.8092    8.1907  -34.6782    8.9281  -28.9658  -47.9451
  5.850  -34.6874    8.0428  -34.9268    8.5251  -34.7117    7.7787  -34.5582    7.7744  -34.4302    7.8569  -34.3216    8.5627  -24.8102  -47.9542
  5.860  -34.3102    7.7106  -34.5505    8.1728  -34.3301    7.4668  -34.1857    7.4581  -34.0580    7.5437  -33.9691    8.2192  -21.1303  -47.9620
  5.870  -33.9396    7.3990  -34.1799    7.8422  -33.9559    7.1739  -33.8199    7.1611  -33.6926    7.2494  -33.6210    7.8960  -17.8917  -47.9686
  5.880  -33.5760    7.1064  -33.8155    7.5317  -33.5892    6.8984  -33.4611    6.8821  -33.3342    6.9726  -33.2779    7.5918  -15.0593  -47.9741
  5.890  -33.2193    6.8314  -33.4575    7.2398  -33.2300    6.6391  -33.1092    6.6196  -32.9828    6.7121  -32.9400    7.3051  -12.5984  -47.9787
  5.900  -32.8697    6.5726  -33.1060    6.9652  -32.8783    6.3949  -32.7644    6.3724  -32.6385    6.4667  -32.6076    7.0349  -10.4744  -47.9826
  5.910  -32.5271    6.3289  -32.7611    6.7066  -32.5339    6.1646  -32.4265    6.1394  -32.3013    6.2352  -32.2807    6.7799   -8.6537  -47.9858
  5.920  -32.1916    6.0991  -32.4229    6.4628  -32.1969    5.9473  -32.0956    5.9196  -31.9710    6.0167  -31.9596    6.5390   -7.1038  -47.9884
  5.930  -31.8630    5.8823  -32.0914    6.2328  -31.8670    5.7420  -31.7715    5.7120  -31.6475    5.8102  -31.6442    6.3114   -5.7937  -47.9905
  5.940  -31.5413    5.6774  -31.7666    6.0156  -31.5443    5.5478  -31.4542    5.5157  -31.3309    5.6149  -31.3346    6.0960   -4.6943  -47.9922
  5.950  -31.2263    5.4838  -31.4483    5.8103  -31.2285    5.3641  -31.1435    5.3300  -31.0208    5.4301  -31.0308    5.8921   -3.7783  -47.9936
  5.960  -30.9180    5.3005  -31.1366    5.6160  -30.9194    5.1902  -30.8393    5.1542  -30.7173    5.2549  -30.7328    5.6990   -3.0207  -47.9947
  5.970  -30.6162    5.1269  -30.8312    5.4321  -30.6169    5.0252  -30.5415    4.9875  -30.4201    5.0888  -30.4404    5.5158   -2.3987  -47.9956
  5.980  -30.3207    4.9623  -30.5322    5.2578  -30.3209    4.8687  -30.2498    4.8293  -30.1292    4.9312  -30.1536    5.3419   -1.8919  -47.9963
  5.990  -30.0313    4.8061  -30.2393    5.0924  -30.0312    4.7201  -29.9642    4.6791  -29.8443    4.7814  -29.8724    5.1767   -1.4820  -47.9969
  6.000  -29.7480    4.6577  -29.9524    4.9354  -29.7476    4.5788  -29.6845    4.5364  -29.5653    4.6390  -29.5965    5.0198   -1.1529  -47.9973
  6.010  -29.4706    4.5167  -29.6713    4.7863  -29.4699    4.4445  -29.4106    4.4006  -29.2920    4.5035  -29.3260    4.8704   -0.8906  -47.9976
  6.020  -29.1989    4.3826  -29.3961    4.6444  -29.1980    4.3166  -29.1422    4.2714  -29.0243    4.3745  -29.0607    4.7282   -0.6833  -47.9979
  6.030  -28.9327    4.2548  -29.1264    4.5094  -28.9318    4.1947  -28.8792    4.1483  -28.7621    4.2515  -28.8005    4.5927   -0.5206  -47.9980
  6.040  -28.6720    4.1331  -28.8621    4.3808  -28.6709    4.0785  -28.6215    4.0309  -28.5051    4.1343  -28.5453    4.4636   -0.3938  -47.9982
  6.050  -28.4164    4.0171  -28.6031    4.2582  -28.4153    3.9676  -28.3689    3.9189  -28.2532    4.0223  -28.2950    4.3403   -0.2958  -47.9983
  6.060  -28.1660    3.9063  -28.3493    4.1412  -28.1648    3.8618  -28.1213    3.8120  -28.0063    3.9154  -28.0494    4.2226   -0.2207  -47.9984
  6.070  -27.9205    3.8006  -28.1004    4.0296  -27.9193    3.7606  -27.8785    3.7098  -27.7642    3.8132  -27.8083    4.1101   -0.1634  -47.9984
  6.080  -27.6798    3.6995  -27.8564    3.9229  -27.6787    3.6639  -27.6403    3.6121  -27.5268    3.7154  -27.5718    4.0026   -0.1202  -47.9985
  6.090  -27.4437    3.6028  -27.6171    3.8209  -27.4427    3.5713  -27.4067    3.5186  -27.2940    3.6218  -27.3397    3.8997   -0.0878  -47.9985
  6.100  -27.2121    3.5103  -27.3824    3.7233  -27.2112    3.4827  -27.1775    3.4291  -27.0655    3.5322  -27.1118    3.8011   -0.0636  -47.9985
  6.110  -26.9849    3.4217  -27.1522    3.6299  -26.9841    3.3977  -26.9526    3.3433  -26.8413    3.4463  -26.8881    3.7067   -0.0458  -47.9986
  6.120  -26.7620    3.3369  -26.9262    3.5404  -26.7612    3.3163  -26.7319    3.2611  -26.6213    3.3638  -26.6684    3.6162   -0.0328  -47.9986
  6.130  -26.5431    3.2554  -26.7045    3.4546  -26.5425    3.2381  -26.5151    3.1822  -26.4053    3.2847  -26.4527    3.5294   -0.0232  -47.9986
  6.140  -26.3283    3.1773  -26.4868    3.3723  -26.3278    3.1631  -26.3023    3.1064  -26.1932    3.2088  -26.2407    3.4460   -0.0164  -47.9986
  6.150  -26.1174    3.1023  -26.2730    3.2933  -26.1170    3.0910  -26.0932    3.0337  -25.9848    3.1358  -26.0325    3.3659   -0.0115  -47.9986
  6.160  -25.9102    3.0303  -26.0631    3.2174  -25.9100    3.0217  -25.8879    2.9638  -25.7802    3.0656  -25.8278    3.2890   -0.0080  -47.9986
  6.170  -25.7066    2.9611  -25.8569    3.1445  -25.7066    2.9551  -25.6861    2.8966  -25.5792    2.9981  -25.6267    3.2150   -0.0055  -47.9986
  6.180  -25.5066    2.8945  -25.6544    3.0744  -25.5068    2.8910  -25.4878    2.8319  -25.3816    2.9332  -25.4290    3.1438   -0.0038  -47.9986
  6.190  -25.3101    2.8304  -25.4553    3.0069  -25.3104    2.8293  -25.2928    2.7697  -25.1873    2.8706  -25.2346    3.0753   -0.0026  -47.9986
  6.200  -25.1169    2.7687  -25.2597    2.9420  -25.1173    2.7698  -25.1011    2.7097  -24.9964    2.8103  -25.0435    3.0093   -0.0017  -47.9986
  6.210  -24.9269    2.7092  -25.0673    2.8794  -24.9276    2.7125  -24.9127    2.6519  -24.8086    2.7522  -24.8555    2.9457   -0.0012  -47.9986
  6.220  -24.7401    2.6519  -24.8782    2.8191  -24.7409    2.6572  -24.7273    2.5962  -24.6240    2.6961  -24.6705    2.8844   -0.0008  -47.9986
  6.230  -24.5564    2.5967  -24.6922    2.7610  -24.5574    2.6038  -24.5449    2.5424  -24.4423    2.6420  -24.4886    2.8252   -0.0005  -47.9986
  6.240  -24.3756    2.5434  -24.5093    2.7049  -24.3768    2.5523  -24.3654    2.4906  -24.2635    2.5898  -24.3095    2.7681   -0.0003  -47.9986
  6.250  -24.1978    2.4919  -24.3293    2.6508  -24.1991    2.5026  -24.1888    2.4405  -24.0876    2.5393  -24.1332    2.7130   -0.0002  -47.9986
  6.260  -24.0227    2.4422  -24.1522    2.5985  -24.0243    2.4545  -24.0150    2.3921  -23.9145    2.4905  -23.9597    2.6597   -0.0001  -47.9986
  6.270  -23.8505    2.3942  -23.9779    2.5480  -23.8522    2.4081  -23.8438    2.3453  -23.7441    2.4434  -23.7889    2.6082   -0.0001  -47.9986
  6.280  -23.6809    2.3478  -23.8063    2.4992  -23.6827    2.3631  -23.6753    2.3001  -23.5762    2.3978  -23.6206    2.5585   -0.0001  -47.9986
  6.290  -23.5138    2.3029  -23.6373    2.4520  -23.5159    2.3197  -23.5093    2.2564  -23.4109    2.3536  -23.4550    2.5103   -0.0000  -47.9986
  6.300  -23.3493    2.2595  -23.4710    2.4063  -23.3516    2.2776  -23.3458    2.2140  -23.2481    2.3109  -23.2917    2.4637   -0.0000  -47.9986
  6.310  -23.1873    2.2175  -23.3071    2.3621  -23.1897    2.2368  -23.1848    2.1731  -23.0878    2.2695  -23.1309    2.4186   -0.0000  -47.9986
  6.320  -23.0277    2.1768  -23.1457    2.3193  -23.0303    2.1973  -23.0261    2.1334  -22.9297    2.2294  -22.9724    2.3749   -0.0000  -47.9986
  6.330  -22.8704    2.1374  -22.9867    2.2779  -22.8731    2.1591  -22.8697    2.0949  -22.7740    2.1905  -22.8163    2.3326   -0.0000  -47.9986
  6.340  -22.7154    2.0992  -22.8300    2.2377  -22.7183    2.1219  -22.7155    2.0576  -22.6205    2.1528  -22.6623    2.2915   -0.0000  -47.9986
  6.350  -22.5626    2.0622  -22.6756    2.1988  -22.5657    2.0859  -22.5635    2.0215  -22.4692    2.1162  -22.5105    2.2517   -0.0000  -47.9986
  6.360  -22.4120    2.0263  -22.5234    2.1610  -22.4152    2.0510  -22.4137    1.9864  -22.3200    2.0807  -22.3609    2.2131   -0.0000  -47.9986
  6.370  -22.2635    1.9914  -22.3733    2.1244  -22.2668    2.0171  -22.2659    1.9524  -22.1729    2.0463  -22.2133    2.1757   -0.0000  -47.9986
  6.380  -22.1170    1.9576  -22.2253    2.0888  -22.1205    1.9842  -22.1201    1.9194  -22.0278    2.0128  -22.0678    2.1393   -0.0000  -47.9986
  6.390  -21.9726    1.9248  -22.0794    2.0543  -21.9762    1.9522  -21.9764    1.8873  -21.8847    1.9803  -21.9242    2.1040   -0.0000  -47.9986
  6.400  -21.8301    1.8929  -21.9354    2.0207  -21.8339    1.9211  -21.8345    1.8562  -21.7435    1.9487  -21.7825    2.0697   -0.0000  -47.9986
  6.410  -21.6895    1.8620  -21.7935    1.9882  -21.6935    1.8909  -21.6946    1.8259  -21.6041    1.9180  -21.6428    2.0363   -0.0000  -47.9986
  6.420  -21.5508    1.8319  -21.6534    1.9565  -21.5549    1.8615  -21.5565    1.7965  -21.4667    1.8881  -21.5048    2.0039   -0.0000  -47.9986
  6.430  -21.4139    1.8026  -21.5152    1.9257  -21.4182    1.8329  -21.4202    1.7678  -21.3310    1.8590  -21.3687    1.9724   -0.0000  -47.9986
  6.440  -21.2788    1.7741  -21.3787    1.8957  -21.2832    1.8051  -21.2856    1.7400  -21.1971    1.8308  -21.2343    1.9417   -0.0000  -47.9986
  6.450  -21.1455    1.7464  -21.2441    1.8666  -21.1500    1.7780  -21.1528    1.7129  -21.0649    1.8032  -21.1017    1.9119   -0.0000  -47.9986
  6.460  -21.0138    1.7195  -21.1112    1.8383  -21.0184    1.7516  -21.0216    1.6866  -20.9343    1.7764  -20.9707    1.8829   -0.0000  -47.9986
  6.470  -20.8838    1.6933  -20.9800    1.8107  -20.8886    1.7260  -20.8921    1.6609  -20.8054    1.7503  -20.8414    1.8546   -0.0000  -47.9986
  6.480  -20.7555    1.6677  -20.8504    1.7838  -20.7603    1.7010  -20.7642    1.6359  -20.6781    1.7249  -20.7136    1.8270   -0.0000  -47.9986
  6.490  -20.6287    1.6429  -20.7225    1.7576  -20.6337    1.6766  -20.6379    1.6116  -20.5524    1.7001  -20.5875    1.8002   -0.0000  -47.9986
  6.500  -20.5035    1.6186  -20.5961    1.7321  -20.5086    1.6528  -20.5131    1.5878  -20.4282    1.6759  -20.4629    1.7741   -0.0000  -47.9986
  6.510  -20.3798    1.5950  -20.4713    1.7072  -20.3850    1.6296  -20.3898    1.5647  -20.3055    1.6524  -20.3397    1.7486   -0.0000  -47.9986
  6.520  -20.2576    1.5720  -20.3480    1.6830  -20.2629    1.6070  -20.2680    1.5422  -20.1842    1.6294  -20.2181    1.7237   -0.0000  -47.9986
  6.530  -20.1368    1.5496  -20.2262    1.6593  -20.1422    1.5850  -20.1476    1.5202  -20.0644    1.6069  -20.0979    1.6995   -0.0000  -47.9986
  6.540  -20.0175    1.5277  -20.1059    1.6363  -20.0230    1.5635  -20.0286    1.4987  -19.9460    1.5851  -19.9791    1.6758   -0.0000  -47.9986
  6.550  -19.8996    1.5063  -19.9869    1.6138  -19.9052    1.5425  -19.9111    1.4778  -19.8290    1.5637  -19.8617    1.6528   -0.0000  -47.9986
  6.560  -19.7830    1.4855  -19.8694    1.5918  -19.7887    1.5219  -19.7948    1.4574  -19.7134    1.5428  -19.7456    1.6302   -0.0000  -47.9986
  6.570  -19.6678    1.4651  -19.7532    1.5704  -19.6736    1.5019  -19.6799    1.4374  -19.5990    1.5225  -19.6309    1.6083   -0.0000  -47.9986
  6.580  -19.5539    1.4453  -19.6384    1.5494  -19.5598    1.4823  -19.5663    1.4180  -19.4860    1.5026  -19.5174    1.5868   -0.0000  -47.9986
  6.590  -19.4413    1.4259  -19.5248    1.5290  -19.4473    1.4632  -19.4540    1.3990  -19.3742    1.4831  -19.4053    1.5658   -0.0000  -47.9986
  6.600  -19.3299    1.4069  -19.4125    1.5090  -19.3360    1.4445  -19.3429    1.3804  -19.2636    1.4641  -19.2944    1.5453   -0.0000  -47.9986
  6.610  -19.2198    1.3884  -19.3015    1.4895  -19.2260    1.4263  -19.2331    1.3622  -19.1543    1.4455  -19.1847    1.5253   -0.0000  -47.9986
  6.620  -19.1109    1.3703  -19.1918    1.4704  -19.1171    1.4084  -19.1244    1.3445  -19.0462    1.4273  -19.0762    1.5057   -0.0000  -47.9986
  6.630  -19.0032    1.3526  -19.0832    1.4517  -19.0095    1.3909  -19.0169    1.3271  -18.9392    1.4096  -18.9689    1.4866   -0.0000  -47.9986
  6.640  -18.8966    1.3354  -18.9758    1.4335  -18.9030    1.3738  -18.9106    1.3102  -18.8334    1.3922  -18.8627    1.4678   -0.0000  -47.9986
  6.650  -18.7912    1.3184  -18.8696    1.4157  -18.7977    1.3571  -18.8054    1.2936  -18.7288    1.3752  -18.7577    1.4495   -0.0000  -47.9986
  6.660  -18.6869    1.3019  -18.7645    1.3982  -18.6935    1.3407  -18.7013    1.2774  -18.6252    1.3585  -18.6538    1.4316   -0.0000  -47.9986
  6.670  -18.5837    1.2857  -18.6605    1.3811  -18.5904    1.3247  -18.5983    1.2615  -18.5227    1.3422  -18.5510    1.4141   -0.0000  -47.9986
  6.680  -18.4816    1.2699  -18.5577    1.3644  -18.4883    1.3090  -18.4964    1.2460  -18.4213    1.3263  -18.4492    1.3970   -0.0000  -47.9986
  6.690  -18.3805    1.2544  -18.4559    1.3481  -18.3873    1.2937  -18.3955    1.2308  -18.3209    1.3107  -18.3485    1.3802   -0.0000  -47.9986
  6.700  -18.2805    1.2392  -18.3551    1.3320  -18.2874    1.2786  -18.2957    1.2159  -18.2216    1.2954  -18.2489    1.3637   -0.0000  -47.9986
  6.710  -18.1815    1.2244  -18.2554    1.3164  -18.1885    1.2639  -18.1969    1.2013  -18.1233    1.2804  -18.1502    1.3476   -0.0000  -47.9986
  6.720  -18.0835    1.2099  -18.1567    1.3010  -18.0905    1.2495  -18.0991    1.1870  -18.0259    1.2657  -18.0526    1.3318   -0.0000  -47.9986
  6.730  -17.9865    1.1956  -18.0590    1.2859  -17.9936    1.2353  -18.0022    1.1730  -17.9296    1.2513  -17.9559    1.3164   -0.0000  -47.9986
  6.740  -17.8905    1.1817  -17.9623    1.2712  -17.8976    1.2214  -17.9063    1.1593  -17.8341    1.2372  -17.8602    1.3013   -0.0000  -47.9986
  6.750  -17.7954    1.1680  -17.8666    1.2567  -17.8026    1.2078  -17.8114    1.1459  -17.7397    1.2234  -17.7654    1.2864   -0.0000  -47.9986
  6.760  -17.7013    1.1546  -17.7718    1.2426  -17.7085    1.1945  -17.7174    1.1327  -17.6461    1.2098  -17.6716    1.2719   -0.0000  -47.9986
  6.770  -17.6081    1.1415  -17.6780    1.2287  -17.6153    1.1814  -17.6243    1.1198  -17.5535    1.1965  -17.5787    1.2576   -0.0000  -47.9986
  6.780  -17.5157    1.1286  -17.5850    1.2151  -17.5231    1.1686  -17.5321    1.1072  -17.4618    1.1835  -17.4866    1.2436   -0.0000  -47.9986
  6.790  -17.4243    1.1160  -17.4930    1.2017  -17.4317    1.1560  -17.4407    1.0948  -17.3709    1.1707  -17.3955    1.2299   -0.0000  -47.9986
  6.800  -17.3338    1.1036  -17.4018    1.1886  -17.3412    1.1437  -17.3503    1.0826  -17.2809    1.1581  -17.3052    1.2165   -0.0000  -47.9986
  6.810  -17.2441    1.0914  -17.3115    1.1757  -17.2515    1.1316  -17.2607    1.0707  -17.1918    1.1458  -17.2158    1.2033   -0.0000  -47.9986
  6.820  -17.1552    1.0795  -17.2221    1.1631  -17.1627    1.1197  -17.1719    1.0590  -17.1034    1.1337  -17.1272    1.1903   -0.0000  -47.9986
  6.830  -17.0672    1.0678  -17.1335    1.1508  -17.0747    1.1080  -17.0840    1.0475  -17.0159    1.1219  -17.0394    1.1776   -0.0000  -47.9986
  6.840  -16.9800    1.0564  -17.0458    1.1386  -16.9875    1.0966  -16.9969    1.0362  -16.9293    1.1102  -16.9525    1.1652   -0.0000  -47.9986
  6.850  -16.8936    1.0451  -16.9588    1.1267  -16.9012    1.0853  -16.9106    1.0252  -16.8434    1.0988  -16.8664    1.1529   -0.0000  -47.9986
  6.860  -16.8079    1.0340  -16.8727    1.1150  -16.8156    1.0742  -16.8250    1.0143  -16.7583    1.0875  -16.7810    1.1409   -0.0000  -47.9986
  6.870  -16.7231    1.0232  -16.7873    1.1035  -16.7308    1.0634  -16.7402    1.0036  -16.6739    1.0765  -16.6964    1.1291   -0.0000  -47.9986
  6.880  -16.6390    1.0125  -16.7027    1.0922  -16.6468    1.0527  -16.6562    0.9931  -16.5903    1.0657  -16.6126    1.1175   -0.0000  -47.9986
  6.890  -16.5557    1.0021  -16.6189    1.0811  -16.5635    1.0422  -16.5730    0.9829  -16.5075    1.0550  -16.5295    1.1061   -0.0000  -47.9986
  6.900  -16.4731    0.9918  -16.5358    1.0702  -16.4809    1.0319  -16.4905    0.9728  -16.4254    1.0445  -16.4472    1.0949   -0.0000  -47.9986
  6.910  -16.3913    0.9817  -16.4535    1.0595  -16.3991    1.0218  -16.4087    0.9628  -16.3440    1.0342  -16.3656    1.0840   -0.0000  -47.9986
  6.920  -16.3102    0.9718  -16.3719    1.0490  -16.3180    1.0119  -16.3276    0.9531  -16.2634    1.0241  -16.2847    1.0732   -0.0000  -47.9986
  6.930  -16.2297    0.9621  -16.2910    1.0386  -16.2376    1.0021  -16.2473    0.9435  -16.1834    1.0142  -16.2045    1.0625   -0.0000  -47.9986
  6.940  -16.1500    0.9525  -16.2109    1.0285  -16.1579    0.9925  -16.1676    0.9341  -16.1041    1.0044  -16.1250    1.0521   -0.0000  -47.9986
  6.950  -16.0710    0.9431  -16.1314    1.0185  -16.0789    0.9830  -16.0886    0.9248  -16.0255    0.9948  -16.0462    1.0419   -0.0000  -47.9986
  6.960  -15.9926    0.9338  -16.0526    1.0087  -16.0006    0.9737  -16.0103    0.9157  -15.9476    0.9854  -15.9680    1.0318   -0.0000  -47.9986
  6.970  -15.9150    0.9247  -15.9745    0.9990  -15.9229    0.9646  -15.9326    0.9068  -15.8704    0.9761  -15.8906    1.0219   -0.0000  -47.9986
  6.980  -15.8379    0.9158  -15.8970    0.9895  -15.8459    0.9556  -15.8556    0.8980  -15.7938    0.9669  -15.8137    1.0121   -0.0000  -47.9986
  6.990  -15.7615    0.9070  -15.8202    0.9802  -15.7696    0.9467  -15.7793    0.8893  -15.7178    0.9579  -15.7376    1.0025   -0.0000  -47.9986
  7.000  -15.6858    0.8983  -15.7441    0.9710  -15.6939    0.9380  -15.7036    0.8808  -15.6425    0.9491  -15.6620    0.9931   -0.0000  -47.9986
  7.010  -15.6107    0.8898  -15.6686    0.9619  -15.6188    0.9295  -15.6285    0.8724  -15.5677    0.9404  -15.5871    0.9838   -0.0000  -47.9986
  7.020  -15.5362    0.8815  -15.5937    0.9530  -15.5443    0.9210  -15.5540    0.8642  -15.4936    0.9318  -15.5128    0.9747   -0.0000  -47.9986
  7.030  -15.4623    0.8732  -15.5194    0.9443  -15.4704    0.9127  -15.4802    0.8561  -15.4202    0.9234  -15.4391    0.9657   -0.0000  -47.9986
  7.040  -15.3890    0.8651  -15.4458    0.9357  -15.3972    0.9045  -15.4069    0.8481  -15.3473    0.9151  -15.3661    0.9569   -0.0000  -47.9986
  7.050  -15.3163    0.8571  -15.3727    0.9272  -15.3245    0.8965  -15.3342    0.8402  -15.2750    0.9069  -15.2936    0.9482   -0.0000  -47.9986
  7.060  -15.2442    0.8493  -15.3003    0.9188  -15.2524    0.8886  -15.2621    0.8325  -15.2032    0.8989  -15.2216    0.9396   -0.0000  -47.9986
  7.070  -15.1727    0.8416  -15.2284    0.9106  -15.1809    0.8808  -15.1906    0.8249  -15.1321    0.8909  -15.1503    0.9312   -0.0000  -47.9986
  7.080  -15.1018    0.8340  -15.1571    0.9025  -15.1099    0.8731  -15.1197    0.8174  -15.0615    0.8831  -15.0795    0.9229   -0.0000  -47.9986
  7.090  -15.0314    0.8265  -15.0863    0.8945  -15.0396    0.8655  -15.0493    0.8101  -14.9915    0.8754  -15.0093    0.9147   -0.0000  -47.9986
  7.100  -14.9615    0.8191  -15.0162    0.8867  -14.9697    0.8581  -14.9795    0.8028  -14.9220    0.8679  -14.9397    0.9067   -0.0000  -47.9986
  7.110  -14.8922    0.8119  -14.9465    0.8790  -14.9005    0.8507  -14.9102    0.7957  -14.8530    0.8604  -14.8706    0.8987   -0.0000  -47.9986
  7.120  -14.8235    0.8047  -14.8775    0.8714  -14.8317    0.8435  -14.8415    0.7886  -14.7846    0.8531  -14.8020    0.8909   -0.0000  -47.9986
  7.130  -14.7553    0.7977  -14.8089    0.8639  -14.7635    0.8364  -14.7732    0.7817  -14.7168    0.8458  -14.7339    0.8832   -0.0000  -47.9986
  7.140  -14.6876    0.7908  -14.7409    0.8565  -14.6958    0.8293  -14.7056    0.7749  -14.6494    0.8387  -14.6664    0.8757   -0.0000  -47.9986
  7.150  -14.6204    0.7839  -14.6735    0.8492  -14.6287    0.8224  -14.6384    0.7681  -14.5826    0.8317  -14.5994    0.8682   -0.0000  -47.9986
  7.160  -14.5537    0.7772  -14.6065    0.8420  -14.5620    0.8156  -14.5717    0.7615  -14.5162    0.8248  -14.5329    0.8609   -0.0000  -47.9986
  7.170  -14.4876    0.7706  -14.5400    0.8350  -14.4958    0.8089  -14.5056    0.7550  -14.4504    0.8179  -14.4669    0.8536   -0.0000  -47.9986
  7.180  -14.4219    0.7640  -14.4741    0.8280  -14.4302    0.8022  -14.4399    0.7485  -14.3851    0.8112  -14.4014    0.8465   -0.0000  -47.9986
  7.190  -14.3567    0.7576  -14.4086    0.8211  -14.3650    0.7957  -14.3747    0.7422  -14.3202    0.8046  -14.3364    0.8394   -0.0000  -47.9986
  7.200  -14.2921    0.7513  -14.3437    0.8143  -14.3003    0.7893  -14.3100    0.7359  -14.2558    0.7980  -14.2719    0.8325   -0.0000  -47.9986
  7.210  -14.2278    0.7450  -14.2792    0.8077  -14.2361    0.7829  -14.2458    0.7298  -14.1920    0.7916  -14.2079    0.8257   -0.0000  -47.9986
  7.220  -14.1641    0.7389  -14.2152    0.8011  -14.1724    0.7767  -14.1821    0.7237  -14.1285    0.7852  -14.1443    0.8189   -0.0000  -47.9986
  7.230  -14.1008    0.7328  -14.1517    0.7946  -14.1091    0.7705  -14.1188    0.7177  -14.0656    0.7790  -14.0812    0.8123   -0.0000  -47.9986
  7.240  -14.0380    0.7268  -14.0886    0.7882  -14.0463    0.7644  -14.0560    0.7118  -14.0031    0.7728  -14.0185    0.8057   -0.0000  -47.9986
  7.250  -13.9757    0.7209  -14.0260    0.7819  -13.9840    0.7584  -13.9936    0.7060  -13.9410    0.7667  -13.9563    0.7992   -0.0000  -47.9986
  7.260  -13.9138    0.7151  -13.9639    0.7757  -13.9221    0.7524  -13.9317    0.7002  -13.8794    0.7607  -13.8946    0.7929   -0.0000  -47.9986
  7.270  -13.8523    0.7093  -13.9022    0.7695  -13.8606    0.7466  -13.8703    0.6946  -13.8182    0.7547  -13.8333    0.7866   -0.0000  -47.9986
  7.280  -13.7913    0.7037  -13.8409    0.7635  -13.7996    0.7408  -13.8092    0.6890  -13.7575    0.7489  -13.7724    0.7804   -0.0000  -47.9986
  7.290  -13.7307    0.6981  -13.7801    0.7575  -13.7390    0.7351  -13.7486    0.6835  -13.6972    0.7431  -13.7120    0.7743   -0.0000  -47.9986
  7.300  -13.6706    0.6926  -13.7197    0.7516  -13.6789    0.7295  -13.6885    0.6780  -13.6373    0.7374  -13.6520    0.7682   -0.0000  -47.9986
  7.310  -13.6109    0.6871  -13.6598    0.7458  -13.6192    0.7240  -13.6287    0.6727  -13.5779    0.7318  -13.5924    0.7623   -0.0000  -47.9986
  7.320  -13.5515    0.6818  -13.6003    0.7401  -13.5598    0.7185  -13.5694    0.6674  -13.5189    0.7263  -13.5332    0.7564   -0.0000  -47.9986
  7.330  -13.4926    0.6765  -13.5412    0.7344  -13.5009    0.7131  -13.5105    0.6622  -13.4602    0.7208  -13.4745    0.7506   -0.0000  -47.9986
  7.340  -13.4341    0.6713  -13.4825    0.7288  -13.4424    0.7078  -13.4519    0.6570  -13.4020    0.7154  -13.4161    0.7449   -0.0000  -47.9986
  7.350  -13.3761    0.6661  -13.4242    0.7233  -13.3843    0.7025  -13.3938    0.6519  -13.3442    0.7101  -13.3582    0.7393   -0.0000  -47.9986
  7.360  -13.3184    0.6611  -13.3663    0.7179  -13.3266    0.6973  -13.3361    0.6469  -13.2867    0.7048  -13.3006    0.7337   -0.0000  -47.9986
  7.370  -13.2611    0.6560  -13.3088    0.7125  -13.2693    0.6922  -13.2788    0.6420  -13.2297    0.6996  -13.2435    0.7282   -0.0000  -47.9986
  7.380  -13.2041    0.6511  -13.2517    0.7072  -13.2124    0.6871  -13.2219    0.6371  -13.1731    0.6945  -13.1867    0.7228   -0.0000  -47.9986
  7.390  -13.1476    0.6462  -13.1950    0.7020  -13.1559    0.6821  -13.1653    0.6323  -13.1168    0.6894  -13.1303    0.7174   -0.0000  -47.9986
  7.400  -13.0915    0.6414  -13.1386    0.6968  -13.0997    0.6772  -13.1092    0.6275  -13.0609    0.6844  -13.0743    0.7121   -0.0000  -47.9986
  7.410  -13.0357    0.6366  -13.0827    0.6917  -13.0440    0.6723  -13.0534    0.6228  -13.0054    0.6795  -13.0187    0.7069   -0.0000  -47.9986
  7.420  -12.9803    0.6320  -13.0271    0.6867  -12.9886    0.6675  -12.9980    0.6182  -12.9502    0.6746  -12.9634    0.7018   -0.0000  -47.9986
  7.430  -12.9253    0.6273  -12.9719    0.6817  -12.9335    0.6628  -12.9429    0.6136  -12.8954    0.6698  -12.9085    0.6967   -0.0000  -47.9986
  7.440  -12.8706    0.6227  -12.9171    0.6768  -12.8788    0.6581  -12.8882    0.6091  -12.8410    0.6650  -12.8540    0.6917   -0.0000  -47.9986
  7.450  -12.8163    0.6182  -12.8626    0.6719  -12.8245    0.6535  -12.8339    0.6046  -12.7869    0.6603  -12.7998    0.6867   -0.0000  -47.9986
  7.460  -12.7623    0.6138  -12.8085    0.6671  -12.7705    0.6489  -12.7799    0.6002  -12.7332    0.6557  -12.7460    0.6818   -0.0000  -47.9986
  7.470  -12.7087    0.6094  -12.7548    0.6624  -12.7169    0.6444  -12.7263    0.5958  -12.6798    0.6511  -12.6925    0.6770   -0.0000  -47.9986
  7.480  -12.6554    0.6050  -12.7013    0.6577  -12.6636    0.6399  -12.6730    0.5915  -12.6268    0.6466  -12.6394    0.6722   -0.0000  -47.9986
  7.490  -12.6025    0.6007  -12.6483    0.6531  -12.6107    0.6355  -12.6200    0.5873  -12.5741    0.6421  -12.5866    0.6675   -0.0000  -47.9986
  7.500  -12.5499    0.5965  -12.5956    0.6486  -12.5581    0.6311  -12.5674    0.5831  -12.5218    0.6377  -12.5341    0.6628   -0.0000  -47.9986
  7.510  -12.4977    0.5923  -12.5432    0.6441  -12.5059    0.6268  -12.5151    0.5790  -12.4698    0.6334  -12.4820    0.6582   -0.0000  -47.9986
  7.520  -12.4458    0.5882  -12.4911    0.6396  -12.4539    0.6226  -12.4632    0.5749  -12.4181    0.6290  -12.4302    0.6537   -0.0000  -47.9986
  7.530  -12.3942    0.5841  -12.4394    0.6352  -12.4023    0.6184  -12.4116    0.5708  -12.3667    0.6248  -12.3787    0.6492   -0.0000  -47.9986
  7.540  -12.3429    0.5800  -12.3880    0.6309  -12.3511    0.6142  -12.3603    0.5668  -12.3157    0.6206  -12.3276    0.6448   -0.0000  -47.9986
  7.550  -12.2919    0.5760  -12.3370    0.6266  -12.3001    0.6101  -12.3093    0.5629  -12.2649    0.6164  -12.2768    0.6404   -0.0000  -47.9986
  7.560  -12.2413    0.5721  -12.2862    0.6223  -12.2494    0.6060  -12.2587    0.5590  -12.2145    0.6123  -12.2263    0.6361   -0.0000  -47.9986
  7.570  -12.1910    0.5682  -12.2358    0.6181  -12.1991    0.6020  -12.2083    0.5551  -12.1644    0.6083  -12.1761    0.6318   -0.0000  -47.9986
  7.580  -12.1410    0.5644  -12.1857    0.6140  -12.1491    0.5981  -12.1583    0.5513  -12.1146    0.6043  -12.1262    0.6276   -0.0000  -47.9986
  7.590  -12.0913    0.5606  -12.1359    0.6099  -12.0994    0.5942  -12.1086    0.5475  -12.0651    0.6003  -12.0766    0.6234   -0.0000  -47.9986
  7.600  -12.0419    0.5568  -12.0864    0.6058  -12.0500    0.5903  -12.0591    0.5438  -12.0160    0.5964  -12.0273    0.6192   -0.0000  -47.9986
  7.610  -11.9928    0.5531  -12.0372    0.6018  -12.0008    0.5865  -12.0100    0.5401  -11.9671    0.5925  -11.9783    0.6152   -0.0000  -47.9986
  7.620  -11.9439    0.5494  -11.9883    0.5979  -11.9520    0.5827  -11.9612    0.5365  -11.9185    0.5887  -11.9297    0.6111   -0.0000  -47.9986
  7.630  -11.8954    0.5458  -11.9397    0.5940  -11.9035    0.5789  -11.9126    0.5329  -11.8702    0.5849  -11.8813    0.6072   -0.0000  -47.9986
  7.640  -11.8472    0.5422  -11.8914    0.5901  -11.8553    0.5753  -11.8644    0.5294  -11.8221    0.5812  -11.8332    0.6032   -0.0000  -47.9986
  7.650  -11.7993    0.5387  -11.8434    0.5863  -11.8073    0.5716  -11.8164    0.5259  -11.7744    0.5775  -11.7854    0.5993   -0.0000  -47.9986
  7.660  -11.7516    0.5352  -11.7956    0.5825  -11.7596    0.5680  -11.7687    0.5224  -11.7270    0.5738  -11.7378    0.5955   -0.0000  -47.9986
  7.670  -11.7042    0.5318  -11.7482    0.5788  -11.7122    0.5644  -11.7213    0.5190  -11.6798    0.5702  -11.6906    0.5917   -0.0000  -47.9986
  7.680  -11.6571    0.5283  -11.7010    0.5751  -11.6651    0.5609  -11.6742    0.5156  -11.6329    0.5667  -11.6436    0.5879   -0.0000  -47.9986
  7.690  -11.6103    0.5250  -11.6541    0.5715  -11.6183    0.5574  -11.6274    0.5122  -11.5863    0.5631  -11.5969    0.5842   -0.0000  -47.9986
  7.700  -11.5637    0.5216  -11.6075    0.5678  -11.5717    0.5540  -11.5808    0.5089  -11.5399    0.5596  -11.5505    0.5805   -0.0000  -47.9986
  7.710  -11.5174    0.5183  -11.5612    0.5643  -11.5254    0.5505  -11.5345    0.5056  -11.4938    0.5562  -11.5043    0.5769   -0.0000  -47.9986
  7.720  -11.4714    0.5151  -11.5151    0.5608  -11.4794    0.5472  -11.4884    0.5024  -11.4480    0.5528  -11.4584    0.5733   -0.0000  -47.9986
  7.730  -11.4257    0.5119  -11.4693    0.5573  -11.4336    0.5438  -11.4427    0.4992  -11.4025    0.5494  -11.4128    0.5698   -0.0000  -47.9986
  7.740  -11.3802    0.5087  -11.4238    0.5538  -11.3881    0.5405  -11.3971    0.4960  -11.3572    0.5461  -11.3674    0.5663   -0.0000  -47.9986
  7.750  -11.3349    0.5055  -11.3785    0.5504  -11.3428    0.5373  -11.3519    0.4929  -11.3121    0.5428  -11.3223    0.5628   -0.0000  -47.9986
  7.760  -11.2899    0.5024  -11.3335    0.5470  -11.2978    0.5341  -11.3069    0.4898  -11.2673    0.5395  -11.2774    0.5594   -0.0000  -47.9986
  7.770  -11.2452    0.4994  -11.2887    0.5437  -11.2531    0.5309  -11.2621    0.4867  -11.2228    0.5363  -11.2328    0.5560   -0.0000  -47.9986
  7.780  -11.2007    0.4963  -11.2442    0.5404  -11.2086    0.5277  -11.2176    0.4837  -11.1785    0.5331  -11.1884    0.5527   -0.0000  -47.9986
  7.790  -11.1564    0.4933  -11.1999    0.5371  -11.1643    0.5246  -11.1733    0.4807  -11.1344    0.5300  -11.1443    0.5493   -0.0000  -47.9986
  7.800  -11.1124    0.4904  -11.1559    0.5339  -11.1203    0.5215  -11.1293    0.4777  -11.0906    0.5269  -11.1004    0.5461   -0.0000  -47.9986
  7.810  -11.0687    0.4874  -11.1122    0.5307  -11.0765    0.5185  -11.0855    0.4748  -11.0471    0.5238  -11.0568    0.5428   -0.0000  -47.9986
  7.820  -11.0252    0.4845  -11.0686    0.5276  -11.0330    0.5154  -11.0420    0.4719  -11.0037    0.5208  -11.0134    0.5396   -0.0000  -47.9986
  7.830  -10.9819    0.4816  -11.0253    0.5244  -10.9896    0.5125  -10.9987    0.4691  -10.9606    0.5177  -10.9702    0.5365   -0.0000  -47.9986
  7.840  -10.9388    0.4788  -10.9823    0.5214  -10.9466    0.5095  -10.9556    0.4662  -10.9178    0.5148  -10.9273    0.5334   -0.0000  -47.9986
  7.850  -10.8960    0.4760  -10.9395    0.5183  -10.9037    0.5066  -10.9128    0.4634  -10.8751    0.5118  -10.8846    0.5303   -0.0000  -47.9986
  7.860  -10.8534    0.4732  -10.8969    0.5153  -10.8611    0.5037  -10.8702    0.4607  -10.8327    0.5089  -10.8421    0.5272   -0.0000  -47.9986
  7.870  -10.8110    0.4705  -10.8545    0.5123  -10.8187    0.5009  -10.8278    0.4579  -10.7905    0.5060  -10.7998    0.5242   -0.0000  -47.9986
  7.880  -10.7688    0.4678  -10.8124    0.5093  -10.7765    0.4980  -10.7856    0.4552  -10.7486    0.5032  -10.7578    0.5212   -0.0000  -47.9986
  7.890  -10.7269    0.4651  -10.7705    0.5064  -10.7346    0.4953  -10.7436    0.4525  -10.7068    0.5004  -10.7160    0.5182   -0.0000  -47.9986
  7.900  -10.6852    0.4625  -10.7288    0.5035  -10.6929    0.4925  -10.7019    0.4499  -10.6653    0.4976  -10.6744    0.5153   -0.0000  -47.9986
  7.910  -10.6437    0.4599  -10.6874    0.5007  -10.6513    0.4898  -10.6604    0.4472  -10.6240    0.4949  -10.6330    0.5124   -0.0000  -47.9986
  7.920  -10.6024    0.4573  -10.6461    0.4978  -10.6100    0.4871  -10.6191    0.4446  -10.5829    0.4922  -10.5919    0.5096   -0.0000  -47.9986
  7.930  -10.5613    0.4547  -10.6051    0.4950  -10.5689    0.4844  -10.5780    0.4421  -10.5420    0.4895  -10.5509    0.5068   -0.0000  -47.9986
  7.940  -10.5204    0.4522  -10.5643    0.4923  -10.5281    0.4818  -10.5371    0.4395  -10.5013    0.4868  -10.5102    0.5040   -0.0000  -47.9986
  7.950  -10.4798    0.4497  -10.5237    0.4895  -10.4874    0.4792  -10.4965    0.4370  -10.4608    0.4842  -10.4697    0.5012   -0.0000  -47.9986
  7.960  -10.4393    0.4472  -10.4833    0.4868  -10.4469    0.4766  -10.4560    0.4345  -10.4206    0.4816  -10.4293    0.4985   -0.0000  -47.9986
  7.970  -10.3991    0.4448  -10.4431    0.4841  -10.4066    0.4740  -10.4157    0.4321  -10.3805    0.4790  -10.3892    0.4958   -0.0000  -47.9986
  7.980  -10.3590    0.4424  -10.4031    0.4815  -10.3665    0.4715  -10.3757    0.4297  -10.3406    0.4765  -10.3493    0.4931   -0.0000  -47.9986
  7.990  -10.3191    0.4400  -10.3633    0.4789  -10.3267    0.4690  -10.3358    0.4273  -10.3010    0.4740  -10.3095    0.4905   -0.0000  -47.9986
  8.000  -10.2795    0.4376  -10.3237    0.4763  -10.2870    0.4666  -10.2961    0.4249  -10.2615    0.4715  -10.2700    0.4879   -0.0000  -47.9986
  8.010  -10.2400    0.4353  -10.2844    0.4737  -10.2475    0.4641  -10.2566    0.4225  -10.2222    0.4690  -10.2306    0.4853   -0.0000  -47.9986
  8.020  -10.2007    0.4330  -10.2452    0.4712  -10.2082    0.4617  -10.2173    0.4202  -10.1831    0.4666  -10.1915    0.4828   -0.0000  -47.9986
  8.030  -10.1616    0.4307  -10.2062    0.4687  -10.1690    0.4593  -10.1782    0.4179  -10.1442    0.4642  -10.1525    0.4802   -0.0000  -47.9986
  8.040  -10.1226    0.4285  -10.1674    0.4662  -10.1301    0.4570  -10.1393    0.4156  -10.1054    0.4619  -10.1137    0.4778   -0.0000  -47.9986
  8.050  -10.0839    0.4263  -10.1288    0.4637  -10.0913    0.4546  -10.1005    0.4134  -10.0669    0.4595  -10.0751    0.4753   -0.0000  -47.9986
  8.060  -10.0454    0.4241  -10.0903    0.4613  -10.0528    0.4523  -10.0620    0.4112  -10.0285    0.4572  -10.0367    0.4729   -0.0000  -47.9986
  8.070  -10.0070    0.4219  -10.0521    0.4589  -10.0144    0.4501  -10.0236    0.4090   -9.9903    0.4549   -9.9985    0.4705   -0.0000  -47.9986
  8.080   -9.9688    0.4198  -10.0140    0.4565   -9.9761    0.4478   -9.9854    0.4068   -9.9523    0.4527   -9.9604    0.4681   -0.0000  -47.9986
  8.090   -9.9307    0.4177   -9.9761    0.4542   -9.9381    0.4456   -9.9474    0.4046   -9.9145    0.4505   -9.9225    0.4658   -0.0000  -47.9986
  8.100   -9.8929    0.4156   -9.9384    0.4519   -9.9002    0.4434   -9.9095    0.4025   -9.8768    0.4483   -9.8848    0.4635   -0.0000  -47.9986
  8.110   -9.8552    0.4135   -9.9009    0.4496   -9.8625    0.4413   -9.8718    0.4004   -9.8393    0.4461   -9.8473    0.4612   -0.0000  -47.9986
  8.120   -9.8177    0.4115   -9.8635    0.4473   -9.8249    0.4391   -9.8343    0.3983   -9.8020    0.4439   -9.8099    0.4589   -0.0000  -47.9986
  8.130   -9.7803    0.4095   -9.8264    0.4450   -9.7876    0.4370   -9.7970    0.3963   -9.7648    0.4418   -9.7727    0.4567   -0.0000  -47.9986
  8.140   -9.7431    0.4075   -9.7893    0.4428   -9.7504    0.4349   -9.7598    0.3942   -9.7279    0.4397   -9.7356    0.4545   -0.0000  -47.9986
  8.150   -9.7061    0.4055   -9.7525    0.4406   -9.7133    0.4328   -9.7227    0.3922   -9.6910    0.4377   -9.6988    0.4523   -0.0000  -47.9986
  8.160   -9.6692    0.4036   -9.7158    0.4385   -9.6764    0.4308   -9.6859    0.3903   -9.6543    0.4356   -9.6620    0.4502   -0.0000  -47.9986
  8.170   -9.6325    0.4017   -9.6793    0.4363   -9.6397    0.4288   -9.6492    0.3883   -9.6178    0.4336   -9.6255    0.4481   -0.0000  -47.9986
  8.180   -9.5959    0.3998   -9.6430    0.4342   -9.6031    0.4268   -9.6126    0.3864   -9.5814    0.4316   -9.5891    0.4460   -0.0000  -47.9986
  8.190   -9.5595    0.3980   -9.6068    0.4321   -9.5666    0.4249   -9.5762    0.3844   -9.5452    0.4297   -9.5528    0.4439   -0.0000  -47.9986
  8.200   -9.5232    0.3961   -9.5707    0.4300   -9.5303    0.4229   -9.5399    0.3825   -9.5092    0.4277   -9.5167    0.4419   -0.0000  -47.9986
  8.210   -9.4871    0.3943   -9.5349    0.4280   -9.4942    0.4210   -9.5038    0.3807   -9.4733    0.4258   -9.4807    0.4399   -0.0000  -47.9986
  8.220   -9.4511    0.3926   -9.4991    0.4260   -9.4582    0.4191   -9.4679    0.3788   -9.4375    0.4240   -9.4449    0.4379   -0.0000  -47.9986
  8.230   -9.4152    0.3908   -9.4636    0.4240   -9.4223    0.4173   -9.4320    0.3770   -9.4019    0.4221   -9.4092    0.4360   -0.0000  -47.9986
  8.240   -9.3796    0.3891   -9.4281    0.4220   -9.3866    0.4154   -9.3964    0.3752   -9.3664    0.4203   -9.3737    0.4340   -0.0000  -47.9986
  8.250   -9.3440    0.3874   -9.3929    0.4201   -9.3510    0.4136   -9.3608    0.3734   -9.3310    0.4185   -9.3383    0.4322   -0.0000  -47.9986
  8.260   -9.3086    0.3857   -9.3577    0.4181   -9.3156    0.4119   -9.3254    0.3717   -9.2958    0.4167   -9.3031    0.4303   -0.0000  -47.9986
  8.270   -9.2733    0.3841   -9.3227    0.4162   -9.2803    0.4101   -9.2901    0.3699   -9.2608    0.4150   -9.2680    0.4284   -0.0000  -47.9986
  8.280   -9.2381    0.3824   -9.2879    0.4144   -9.2451    0.4084   -9.2550    0.3682   -9.2258    0.4132   -9.2330    0.4266   -0.0000  -47.9986
  8.290   -9.2031    0.3809   -9.2532    0.4125   -9.2100    0.4067   -9.2200    0.3665   -9.1910    0.4115   -9.1981    0.4249   -0.0000  -47.9986
  8.300   -9.1682    0.3793   -9.2186    0.4107   -9.1751    0.4050   -9.1851    0.3649   -9.1563    0.4099   -9.1634    0.4231   -0.0000  -47.9986
  8.310   -9.1334    0.3777   -9.1842    0.4089   -9.1403    0.4034   -9.1504    0.3632   -9.1218    0.4082   -9.1288    0.4214   -0.0000  -47.9986
  8.320   -9.0987    0.3762   -9.1499    0.4071   -9.1056    0.4017   -9.1157    0.3616   -9.0873    0.4066   -9.0943    0.4197   -0.0000  -47.9986
  8.330   -9.0641    0.3747   -9.1157    0.4054   -9.0710    0.4001   -9.0812    0.3600   -9.0530    0.4050   -9.0600    0.4180   -0.0000  -47.9986
  8.340   -9.0297    0.3733   -9.0817    0.4036   -9.0366    0.3986   -9.0468    0.3584   -9.0188    0.4035   -9.0258    0.4164   -0.0000  -47.9986
  8.350   -8.9954    0.3718   -9.0477    0.4019   -9.0022    0.3970   -9.0125    0.3569   -8.9847    0.4020   -8.9916    0.4148   -0.0000  -47.9986
  8.360   -8.9612    0.3704   -9.0140    0.4002   -8.9680    0.3955   -8.9783    0.3553   -8.9508    0.4005   -8.9576    0.4132   -0.0000  -47.9986
  8.370   -8.9271    0.3690   -8.9803    0.3986   -8.9338    0.3940   -8.9443    0.3538   -8.9169    0.3990   -8.9237    0.4116   -0.0000  -47.9986
  8.380   -8.8931    0.3677   -8.9467    0.3970   -8.8998    0.3926   -8.9103    0.3524   -8.8832    0.3976   -8.8900    0.4101   -0.0000  -47.9986
  8.390   -8.8592    0.3664   -8.9133    0.3954   -8.8659    0.3911   -8.8765    0.3509   -8.8495    0.3961   -8.8563    0.4086   -0.0000  -47.9986
  8.400   -8.8254    0.3651   -8.8800    0.3938   -8.8321    0.3897   -8.8427    0.3495   -8.8160    0.3948   -8.8227    0.4071   -0.0000  -47.9986
  8.410   -8.7917    0.3638   -8.8468    0.3922   -8.7984    0.3884   -8.8091    0.3480   -8.7826    0.3934   -8.7892    0.4057   -0.0000  -47.9986
  8.420   -8.7581    0.3626   -8.8137    0.3907   -8.7647    0.3870   -8.7755    0.3467   -8.7492    0.3921   -8.7559    0.4043   -0.0000  -47.9986
  8.430   -8.7246    0.3614   -8.7807    0.3892   -8.7312    0.3857   -8.7421    0.3453   -8.7160    0.3908   -8.7226    0.4029   -0.0000  -47.9986
  8.440   -8.6911    0.3602   -8.7478    0.3877   -8.6977    0.3844   -8.7087    0.3440   -8.6828    0.3895   -8.6894    0.4016   -0.0000  -47.9986
  8.450   -8.6578    0.3590   -8.7151    0.3862   -8.6643    0.3832   -8.6754    0.3426   -8.6498    0.3883   -8.6563    0.4003   -0.0000  -47.9986
  8.460   -8.6245    0.3579   -8.6824    0.3848   -8.6311    0.3820   -8.6422    0.3413   -8.6168    0.3871   -8.6233    0.3990   -0.0000  -47.9986
  8.470   -8.5913    0.3568   -8.6498    0.3834   -8.5978    0.3808   -8.6091    0.3401   -8.5839    0.3860   -8.5904    0.3978   -0.0000  -47.9986
  8.480   -8.5582    0.3558   -8.6174    0.3820   -8.5647    0.3796   -8.5760    0.3388   -8.5511    0.3848   -8.5575    0.3966   -0.0000  -47.9986
  8.490   -8.5252    0.3548   -8.5850    0.3807   -8.5316    0.3785   -8.5431    0.3376   -8.5184    0.3837   -8.5248    0.3954   -0.0000  -47.9986
  8.500   -8.4922    0.3538   -8.5527    0.3794   -8.4986    0.3774   -8.5102    0.3365   -8.4857    0.3827   -8.4921    0.3943   -0.0000  -47.9986
  8.510   -8.4593    0.3529   -8.5205    0.3781   -8.4657    0.3763   -8.4773    0.3353   -8.4532    0.3817   -8.4595    0.3932   -0.0000  -47.9986
  8.520   -8.4265    0.3519   -8.4884    0.3768   -8.4328    0.3753   -8.4446    0.3342   -8.4206    0.3807   -8.4269    0.3922   -0.0000  -47.9986
  8.530   -8.3937    0.3511   -8.4564    0.3756   -8.4000    0.3743   -8.4119    0.3331   -8.3882    0.3797   -8.3945    0.3911   -0.0000  -47.9986
  8.540   -8.3610    0.3502   -8.4244    0.3743   -8.3673    0.3734   -8.3792    0.3320   -8.3558    0.3788   -8.3620    0.3902   -0.0000  -47.9986
  8.550   -8.3283    0.3494   -8.3925    0.3732   -8.3345    0.3725   -8.3466    0.3309   -8.3235    0.3779   -8.3297    0.3892   -0.0000  -47.9986
  8.560   -8.2956    0.3487   -8.3608    0.3720   -8.3019    0.3716   -8.3141    0.3299   -8.2912    0.3771   -8.2974    0.3883   -0.0000  -47.9986
  8.570   -8.2630    0.3480   -8.3290    0.3709   -8.2692    0.3708   -8.2816    0.3290   -8.2590    0.3763   -8.2651    0.3875   -0.0000  -47.9986
  8.580   -8.2305    0.3473   -8.2974    0.3698   -8.2366    0.3700   -8.2491    0.3280   -8.2268    0.3756   -8.2329    0.3867   -0.0000  -47.9986
  8.590   -8.1980    0.3467   -8.2658    0.3687   -8.2041    0.3693   -8.2167    0.3271   -8.1946    0.3749   -8.2007    0.3859   -0.0000  -47.9986
  8.600   -8.1655    0.3461   -8.2343    0.3677   -8.1715    0.3686   -8.1843    0.3262   -8.1625    0.3742   -8.1686    0.3852   -0.0000  -47.9986
  8.610   -8.1330    0.3456   -8.2028    0.3667   -8.1390    0.3679   -8.1519    0.3253   -8.1305    0.3736   -8.1365    0.3845   -0.0000  -47.9986
  8.620   -8.1005    0.3451   -8.1714    0.3658   -8.1065    0.3673   -8.1196    0.3245   -8.0984    0.3731   -8.1044    0.3839   -0.0000  -47.9986
  8.630   -8.0681    0.3446   -8.1400    0.3648   -8.0740    0.3667   -8.0872    0.3238   -8.0664    0.3726   -8.0724    0.3833   -0.0000  -47.9986
  8.640   -8.0356    0.3443   -8.1087    0.3639   -8.0416    0.3662   -8.0549    0.3230   -8.0344    0.3721   -8.0404    0.3828   -0.0000  -47.9986
  8.650   -8.0032    0.3439   -8.0775    0.3631   -8.0091    0.3658   -8.0226    0.3223   -8.0025    0.3717   -8.0084    0.3823   -0.0000  -47.9986
  8.660   -7.9708    0.3437   -8.0463    0.3623   -7.9766    0.3654   -7.9903    0.3217   -7.9705    0.3714   -7.9764    0.3819   -0.0000  -47.9986
  8.670   -7.9383    0.3434   -8.0151    0.3615   -7.9441    0.3650   -7.9580    0.3210   -7.9385    0.3711   -7.9444    0.3816   -0.0000  -47.9986
  8.680   -7.9059    0.3433   -7.9839    0.3607   -7.9116    0.3648   -7.9256    0.3205   -7.9066    0.3708   -7.9124    0.3813   -0.0000  -47.9986
  8.690   -7.8734    0.3432   -7.9528    0.3601   -7.8790    0.3645   -7.8933    0.3199   -7.8746    0.3707   -7.8804    0.3811   -0.0000  -47.9986
  8.700   -7.8409    0.3432   -7.9217    0.3594   -7.8465    0.3644   -7.8609    0.3195   -7.8426    0.3706   -7.8484    0.3809   -0.0000  -47.9986
  8.710   -7.8083    0.3432   -7.8907    0.3588   -7.8139    0.3643   -7.8285    0.3190   -7.8106    0.3706   -7.8164    0.3809   -0.0000  -47.9986
  8.720   -7.7757    0.3434   -7.8596    0.3582   -7.7812    0.3643   -7.7961    0.3186   -7.7786    0.3706   -7.7843    0.3808   -0.0000  -47.9986
  8.730   -7.7431    0.3436   -7.8286    0.3577   -7.7485    0.3643   -7.7636    0.3183   -7.7465    0.3707   -7.7522    0.3809   -0.0000  -47.9986
  8.740   -7.7104    0.3438   -7.7975    0.3572   -7.7157    0.3645   -7.7310    0.3180   -7.7144    0.3709   -7.7201    0.3811   -0.0000  -47.9986
  8.750   -7.6776    0.3442   -7.7665    0.3568   -7.6829    0.3647   -7.6984    0.3178   -7.6823    0.3712   -7.6880    0.3813   -0.0001  -47.9986
  8.760   -7.6447    0.3447   -7.7355    0.3564   -7.6499    0.3650   -7.6657    0.3177   -7.6501    0.3716   -7.6557    0.3816   -0.0001  -47.9986
  8.770   -7.6118    0.3452   -7.7044    0.3561   -7.6169    0.3654   -7.6330    0.3176   -7.6178    0.3721   -7.6234    0.3820   -0.0002  -47.9986
  8.780   -7.5787    0.3458   -7.6734    0.3558   -7.5838    0.3659   -7.6001    0.3176   -7.5855    0.3726   -7.5911    0.3825   -0.0004  -47.9986
  8.790   -7.5456    0.3466   -7.6423    0.3556   -7.5505    0.3665   -7.5671    0.3176   -7.5531    0.3733   -7.5587    0.3831   -0.0007  -47.9986
  8.800   -7.5123    0.3475   -7.6112    0.3555   -7.5172    0.3672   -7.5341    0.3178   -7.5206    0.3741   -7.5261    0.3839   -0.0013  -47.9986
  8.810   -7.4789    0.3485   -7.5800    0.3554   -7.4837    0.3680   -7.5009    0.3180   -7.4880    0.3750   -7.4935    0.3847   -0.0023  -47.9986
  8.820   -7.4454    0.3496   -7.5488    0.3554   -7.4500    0.3689   -7.4675    0.3183   -7.4552    0.3760   -7.4608    0.3857   -0.0039  -47.9986
  8.830   -7.4117    0.3508   -7.5176    0.3555   -7.4162    0.3700   -7.4340    0.3187   -7.4224    0.3771   -7.4279    0.3868   -0.0067  -47.9986
  8.840   -7.3778    0.3522   -7.4863    0.3556   -7.3822    0.3712   -7.4003    0.3191   -7.3894    0.3784   -7.3949    0.3880   -0.0114  -47.9986
  8.850   -7.3437    0.3537   -7.4550    0.3558   -7.3480    0.3725   -7.3665    0.3197   -7.3563    0.3798   -7.3618    0.3893   -0.0190  -47.9986
  8.860   -7.3095    0.3554   -7.4235    0.3561   -7.3136    0.3740   -7.3325    0.3204   -7.3230    0.3814   -7.3285    0.3909   -0.0313  -47.9986
  8.870   -7.2750    0.3573   -7.3920    0.3565   -7.2790    0.3756   -7.2982    0.3212   -7.2896    0.3831   -7.2950    0.3926   -0.0511  -47.9986
  8.880   -7.2403    0.3593   -7.3605    0.3569   -7.2442    0.3775   -7.2637    0.3222   -7.2560    0.3850   -7.2614    0.3944   -0.0824  -47.9987
  8.890   -7.2053    0.3616   -7.3288    0.3575   -7.2090    0.3795   -7.2290    0.3232   -7.2221    0.3871   -7.2276    0.3965   -0.1316  -47.9987
  8.900   -7.1701    0.3640   -7.2970    0.3581   -7.1736    0.3817   -7.1939    0.3245   -7.1881    0.3894   -7.1935    0.3987   -0.2079  -47.9988
  8.910   -7.1345    0.3667   -7.2650    0.3589   -7.1379    0.3842   -7.1586    0.3258   -7.1538    0.3919   -7.1592    0.4012   -0.3250  -47.9989
  8.920   -7.0987    0.3697   -7.2330    0.3598   -7.1018    0.3868   -7.1230    0.3273   -7.1193    0.3947   -7.1246    0.4039   -0.5028  -47.9991
  8.930   -7.0625    0.3729   -7.2008    0.3608   -7.0654    0.3898   -7.0870    0.3291   -7.0844    0.3977   -7.0898    0.4068   -0.7696  -47.9994
  8.940   -7.0259    0.3763   -7.1684    0.3619   -7.0286    0.3930   -7.0507    0.3310   -7.0493    0.4009   -7.0547    0.4100   -1.1654  -47.9998
  8.950   -6.9890    0.3801   -7.1359    0.3631   -6.9913    0.3965   -7.0139    0.3331   -7.0139    0.4045   -7.0192    0.4135   -1.7454  -48.0005
  8.960   -6.9516    0.3843   -7.1032    0.3645   -6.9536    0.4003   -6.9767    0.3354   -6.9781    0.4083   -6.9835    0.4173   -2.5847  -48.0014
  8.970   -6.9137    0.3887   -7.0703    0.3660   -6.9155    0.4045   -6.9391    0.3380   -6.9420    0.4125   -6.9473    0.4215   -3.7833  -48.0028
  8.980   -6.8754    0.3936   -7.0372    0.3677   -6.8768    0.4090   -6.9009    0.3408   -6.9055    0.4171   -6.9108    0.4260   -5.4713  -48.0048
  8.990   -6.8365    0.3989   -7.0038    0.3696   -6.8375    0.4140   -6.8622    0.3440   -6.8685    0.4220   -6.8738    0.4309   -7.8137  -48.0077
  9.000   -6.7971    0.4047   -6.9702    0.3717   -6.7977    0.4194   -6.8229    0.3474   -6.8311    0.4274   -6.8364    0.4362  -11.0146  -48.0117
  9.010   -6.7571    0.4110   -6.9363    0.3739   -6.7572    0.4253   -6.7830    0.3512   -6.7932    0.4332   -6.7985    0.4420  -15.3185  -48.0174
  9.020   -6.7164    0.4179   -6.9022    0.3764   -6.7159    0.4317   -6.7424    0.3554   -6.7548    0.4396   -6.7601    0.4483  -21.0082  -48.0251
  9.030   -6.6750    0.4254   -6.8677    0.3790   -6.6740    0.4388   -6.7010    0.3601   -6.7159    0.4465   -6.7211    0.4552  -28.3982  -48.0355
  9.040   -6.6328    0.4335   -6.8329    0.3820   -6.6312    0.4465   -6.6588    0.3652   -6.6763    0.4540   -6.6816    0.4627  -37.8217  -48.0494
  9.050   -6.5898    0.4425   -6.7977    0.3852   -6.5875    0.4549   -6.6157    0.3708   -6.6361    0.4623   -6.6414    0.4709  -49.6106  -48.0676
  9.060   -6.5460    0.4522   -6.7622    0.3886   -6.5428    0.4642   -6.5717    0.3770   -6.5953    0.4712   -6.6005    0.4798  -64.0692  -48.0912
  9.070   -6.5012    0.4629   -6.7262    0.3924   -6.4972    0.4743   -6.5267    0.3838   -6.5537    0.4810   -6.5589    0.4895  -81.4416  -48.1211
  9.080   -6.4555    0.4746   -6.6898    0.3965   -6.4504    0.4855   -6.4805    0.3914   -6.5113    0.4917   -6.5165    0.5002 -101.8766  -48.1586
  9.090   -6.4086    0.4875   -6.6529    0.4010   -6.4024    0.4977   -6.4331    0.3997   -6.4681    0.5034   -6.4733    0.5118 -125.3915  -48.2046
  9.100   -6.3606    0.5016   -6.6155    0.4059   -6.3531    0.5113   -6.3844    0.4090   -6.4240    0.5162   -6.4292    0.5246 -151.8419  -48.2604
  9.110   -6.3113    0.5172   -6.5775    0.4112   -6.3024    0.5262   -6.3342    0.4193   -6.3789    0.5303   -6.3842    0.5387 -180.9010  -48.3269
  9.120   -6.2607    0.5344   -6.5390    0.4169   -6.2502    0.5427   -6.2825    0.4308   -6.3329    0.5457   -6.3381    0.5541 -212.0536  -48.4048
  9.130   -6.2087    0.5534   -6.4998    0.4232   -6.1963    0.5611   -6.2290    0.4436   -6.2858    0.5628   -6.2910    0.5711 -244.6092  -48.4947
  9.140   -6.1552    0.5745   -6.4599    0.4300   -6.1406    0.5815   -6.1737    0.4580   -6.2376    0.5816   -6.2428    0.5899 -277.7355  -48.5968
  9.150   -6.1001    0.5980   -6.4193    0.4374   -6.0830    0.6043   -6.1163    0.4740   -6.1881    0.6024   -6.1934    0.6107 -310.5123  -48.7109
  9.160   -6.0433    0.6241   -6.3779    0.4455   -6.0234    0.6298   -6.0567    0.4921   -6.1375    0.6255   -6.1428    0.6337 -342.0029  -48.8366
  9.170   -5.9846    0.6532   -6.3356    0.4544   -5.9615    0.6584   -5.9946    0.5125   -6.0856    0.6511   -6.0908    0.6593 -371.3361  -48.9731
  9.180   -5.9241    0.6859   -6.2924    0.4640   -5.8972    0.6905   -5.9298    0.5356   -6.0323    0.6797   -6.0376    0.6878 -397.7930  -49.1192
  9.190   -5.8617    0.7225   -6.2483    0.4746   -5.8304    0.7269   -5.8621    0.5619   -5.9778    0.7116   -5.9831    0.7197 -420.8894  -49.2739
  9.200   -5.7972    0.7638   -6.2030    0.4861   -5.7608    0.7681   -5.7912    0.5919   -5.9219    0.7472   -5.9272    0.7553 -440.4463  -49.4358
  9.210   -5.7308    0.8105   -6.1566    0.4988   -5.6885    0.8150   -5.7168    0.6263   -5.8648    0.7873   -5.8701    0.7953 -456.6430  -49.6036
  9.220   -5.6624    0.8633   -6.1090    0.5127   -5.6132    0.8687   -5.6387    0.6659   -5.8065    0.8323   -5.8119    0.8403 -470.0505  -49.7763
  9.230   -5.5923    0.9233   -6.0600    0.5280   -5.5350    0.9303   -5.5565    0.7118   -5.7474    0.8831   -5.7528    0.8911 -481.6433  -49.9533
  9.240   -5.5208    0.9917   -6.0095    0.5449   -5.4540    1.0013   -5.4702    0.7653   -5.6876    0.9406   -5.6930    0.9485 -492.7944  -50.1344
  9.250   -5.4482    1.0699   -5.9575    0.5635   -5.3705    1.0835   -5.3795    0.8278   -5.6277    1.0056   -5.6332    1.0136 -505.2548  -50.3201
  9.260   -5.3754    1.1595   -5.9037    0.5842   -5.2851    1.1792   -5.2845    0.9014   -5.5684    1.0795   -5.5739    1.0874 -521.1202  -50.5116
  9.270   -5.3035    1.2623   -5.8480    0.6071   -5.1988    1.2910   -5.1854    0.9884   -5.5109    1.1635   -5.5164    1.1714 -542.7820  -50.7111
  9.280   -5.2342    1.3804   -5.7903    0.6326   -5.1133    1.4221   -5.0830    1.0919   -5.4564    1.2588   -5.4620    1.2667 -572.8526  -50.9216
  9.290   -5.1700    1.5160   -5.7304    0.6610   -5.0315    1.5761   -4.9788    1.2155   -5.4072    1.3670   -5.4128    1.3748 -614.0486  -51.1473
  9.300   -5.1142    1.6715   -5.6681    0.6929   -4.9576    1.7571   -4.8752    1.3636   -5.3660    1.4892   -5.3717    1.4971 -669.0066  -51.3931
  9.310   -5.0716    1.8489   -5.6031    0.7288   -4.8979    1.9695   -4.7766    1.5410   -5.3365    1.6265   -5.3423    1.6343 -740.0095  -51.6651
  9.320   -5.0486    2.0497   -5.5351    0.7695   -4.8621    2.2170   -4.6898    1.7530   -5.3237    1.7788   -5.3296    1.7867 -828.6121  -51.9696
  9.330   -5.0535    2.2738   -5.4641    0.8158   -4.8633    2.5014   -4.6252    2.0042   -5.3333    1.9451   -5.3393    1.9530 -935.1829  -52.3133
  9.340   -5.0964    2.5187   -5.3896    0.8690   -4.9194    2.8203   -4.5975    2.2967   -5.3722    2.1217   -5.3784    2.1297 *********  -52.7022
  9.350   -5.1889    2.7774   -5.3117    0.9306   -5.0516    3.1631   -4.6263    2.6270   -5.4472    2.3019   -5.4537    2.3100 *********  -53.1414
  9.360   -5.3420    3.0372   -5.2306    1.0026   -5.2809    3.5070   -4.7336    2.9818   -5.5634    2.4751   -5.5703    2.4831 *********  -53.6335
  9.370   -5.5628    3.2784   -5.1470    1.0874   -5.6202    3.8142   -4.9386    3.3342   -5.7218    2.6266   -5.7291    2.6346 *********  -54.1787
  9.380   -5.8498    3.4758   -5.0625    1.1878   -6.0629    4.0356   -5.2473    3.6439   -5.9162    2.7405   -5.9242    2.7482 *********  -54.7736
  9.390   -6.1886    3.6039   -4.9797    1.3062   -6.5735    4.1245   -5.6426    3.8662   -6.1322    2.8034   -6.1407    2.8107 *********  -55.4115
  9.400   -6.5522    3.6451   -4.9020    1.4448   -7.0916    4.0571   -6.0829    3.9689   -6.3492    2.8102   -6.3582    2.8168 *********  -56.0826
  9.410   -6.9076    3.5969   -4.8335    1.6051   -7.5514    3.8460   -6.5141    3.9473   -6.5462    2.7666   -6.5556    2.7724 *********  -56.7748
  9.420   -7.2257    3.4723   -4.7786    1.7884   -7.9060    3.5345   -6.8909    3.8250   -6.7084    2.6871   -6.7179    2.6920 *********  -57.4750
  9.430   -7.4886    3.2942   -4.7428    1.9956   -8.1391    3.1775   -7.1900    3.6413   -6.8300    2.5902   -6.8393    2.5941 *********  -58.1703
  9.440   -7.6909    3.0870   -4.7330    2.2270   -8.2611    2.8221   -7.4108    3.4344   -6.9135    2.4926   -6.9225    2.4956 *********  -58.8491
  9.450   -7.8370    2.8710   -4.7581    2.4816   -8.2958    2.4991   -7.5675    3.2317   -6.9675    2.4071   -6.9759    2.4093 *********  -59.5022
  9.460   -7.9363    2.6603   -4.8290    2.7553   -8.2703    2.2234   -7.6795    3.0479   -7.0033    2.3409   -7.0112    2.3424 *********  -60.1226
  9.470   -7.9997    2.4625   -4.9577    3.0392   -8.2087    1.9988   -7.7659    2.8866   -7.0334    2.2959   -7.0406    2.2970 *********  -60.7061
  9.480   -8.0377    2.2804   -5.1548    3.3179   -8.1303    1.8221   -7.8415    2.7441   -7.0691    2.2693   -7.0755    2.2699 *********  -61.2502
  9.490   -8.0581    2.1132   -5.4260    3.5690   -8.0493    1.6863   -7.9155    2.6119   -7.1193    2.2535   -7.1248    2.2539 *********  -61.7541
  9.500   -8.0665    1.9583   -5.7670    3.7656   -7.9754    1.5819   -7.9910    2.4802   -7.1885    2.2380   -7.1932    2.2382 *********  -62.2181
  9.510   -8.0653    1.8125   -6.1611    3.8815   -7.9137    1.4990   -8.0651    2.3403   -7.2757    2.2111   -7.2796    2.2113 *********  -62.6430
  9.520   -8.0551    1.6734   -6.5789    3.8989   -7.8652    1.4278   -8.1309    2.1874   -7.3741    2.1631   -7.3773    2.1636 *********  -63.0297
  9.530   -8.0352    1.5403   -6.9850    3.8147   -7.8275    1.3610   -8.1803    2.0220   -7.4732    2.0893   -7.4756    2.0901 -952.4137  -63.3797
  9.540   -8.0051    1.4138   -7.3469    3.6420   -7.7964    1.2939   -8.2069    1.8491   -7.5618    1.9908   -7.5637    1.9921 -856.7031  -63.6945
  9.550   -7.9652    1.2952   -7.6427    3.4051   -7.7673    1.2248   -8.2083    1.6762   -7.6315    1.8735   -7.6330    1.8752 -765.8934  -63.9760
  9.560   -7.9167    1.1860   -7.8639    3.1320   -7.7367    1.1544   -8.1857    1.5105   -7.6782    1.7455   -7.6794    1.7477 -680.6908  -64.2261
  9.570   -7.8615    1.0872   -8.0131    2.8474   -7.7026    1.0842   -8.1431    1.3573   -7.7015    1.6149   -7.7026    1.6175 -601.7664  -64.4473
  9.580   -7.8018    0.9988   -8.1001    2.5698   -7.6643    1.0161   -8.0856    1.2196   -7.7040    1.4877   -7.7049    1.4908 -529.6543  -64.6419
  9.590   -7.7394    0.9206   -8.1372    2.3106   -7.6222    0.9514   -8.0180    1.0982   -7.6893    1.3681   -7.6902    1.3716 -464.6701  -64.8127
  9.600   -7.6759    0.8517   -8.1368    2.0756   -7.5769    0.8910   -7.9445    0.9926   -7.6614    1.2583   -7.6624    1.2621 -406.8677  -64.9622
  9.610   -7.6125    0.7912   -8.1093    1.8664   -7.5294    0.8355   -7.8681    0.9015   -7.6240    1.1591   -7.6250    1.1632 -356.0388  -65.0931
  9.620   -7.5499    0.7380   -8.0631    1.6824   -7.4804    0.7848   -7.7912    0.8230   -7.5800    1.0703   -7.5811    1.0746 -311.7491  -65.2076
  9.630   -7.4888    0.6911   -8.0047    1.5217   -7.4307    0.7388   -7.7152    0.7555   -7.5318    0.9914   -7.5329    0.9958 -273.3967  -65.3081
  9.640   -7.4293    0.6498   -7.9388    1.3819   -7.3809    0.6972   -7.6410    0.6974   -7.4809    0.9213   -7.4821    0.9259 -240.2812  -65.3964
  9.650   -7.3718    0.6131   -7.8687    1.2602   -7.3314    0.6597   -7.5693    0.6471   -7.4289    0.8591   -7.4301    0.8639 -211.6706  -65.4742
  9.660   -7.3162    0.5805   -7.7967    1.1544   -7.2825    0.6257   -7.5003    0.6035   -7.3764    0.8040   -7.3778    0.8089 -186.8579  -65.5429
  9.670   -7.2625    0.5514   -7.7244    1.0621   -7.2345    0.5951   -7.4342    0.5655   -7.3242    0.7550   -7.3257    0.7600 -165.2013  -65.6036
  9.680   -7.2107    0.5253   -7.6530    0.9815   -7.1875    0.5674   -7.3708    0.5323   -7.2727    0.7114   -7.2742    0.7164 -146.1488  -65.6573
  9.690   -7.1608    0.5018   -7.5830    0.9108   -7.1415    0.5422   -7.3102    0.5030   -7.2222    0.6724   -7.2238    0.6775 -129.2470  -65.7048
  9.700   -7.1127    0.4806   -7.5150    0.8486   -7.0967    0.5194   -7.2522    0.4772   -7.1728    0.6375   -7.1745    0.6426 -114.1389  -65.7467
  9.710   -7.0662    0.4614   -7.4491    0.7936   -7.0530    0.4986   -7.1967    0.4542   -7.1247    0.6061   -7.1264    0.6113 -100.5526  -65.7837
  9.720   -7.0213    0.4439   -7.3854    0.7450   -7.0104    0.4796   -7.1435    0.4337   -7.0779    0.5778   -7.0796    0.5830  -88.2870  -65.8161
  9.730   -6.9778    0.4279   -7.3241    0.7017   -6.9690    0.4622   -7.0924    0.4154   -7.0323    0.5522   -7.0341    0.5574  -77.1954  -65.8445
  9.740   -6.9357    0.4133   -7.2651    0.6631   -6.9287    0.4463   -7.0434    0.3989   -6.9881    0.5290   -6.9899    0.5342  -67.1704  -65.8692
  9.750   -6.8950    0.3998   -7.2082    0.6285   -6.8894    0.4317   -6.9963    0.3840   -6.9451    0.5079   -6.9469    0.5131  -58.1312  -65.8905
  9.760   -6.8554    0.3875   -7.1535    0.5974   -6.8511    0.4182   -6.9509    0.3705   -6.9033    0.4886   -6.9052    0.4939  -50.0130  -65.9089
  9.770   -6.8171    0.3761   -7.1009    0.5693   -6.8138    0.4057   -6.9071    0.3582   -6.8628    0.4710   -6.8647    0.4763  -42.7599  -65.9246
  9.780   -6.7797    0.3655   -7.0501    0.5440   -6.7774    0.3942   -6.8648    0.3470   -6.8233    0.4548   -6.8252    0.4601  -36.3195  -65.9380
  9.790   -6.7434    0.3557   -7.0012    0.5210   -6.7419    0.3835   -6.8240    0.3367   -6.7849    0.4399   -6.7869    0.4452  -30.6399  -65.9492
  9.800   -6.7081    0.3465   -6.9540    0.5000   -6.7073    0.3736   -6.7844    0.3272   -6.7475    0.4262   -6.7495    0.4315  -25.6682  -65.9587
  9.810   -6.6736    0.3380   -6.9084    0.4809   -6.6734    0.3643   -6.7461    0.3185   -6.7111    0.4135   -6.7132    0.4188  -21.3498  -65.9665
  9.820   -6.6400    0.3301   -6.8644    0.4634   -6.6404    0.3556   -6.7089    0.3105   -6.6757    0.4017   -6.6777    0.4070  -17.6292  -65.9730
  9.830   -6.6072    0.3226   -6.8218    0.4474   -6.6080    0.3476   -6.6727    0.3030   -6.6411    0.3908   -6.6431    0.3961  -14.4498  -65.9783
  9.840   -6.5751    0.3156   -6.7805    0.4326   -6.5763    0.3400   -6.6375    0.2961   -6.6073    0.3806   -6.6094    0.3859  -11.7556  -65.9826
  9.850   -6.5438    0.3091   -6.7405    0.4190   -6.5453    0.3329   -6.6033    0.2896   -6.5743    0.3711   -6.5764    0.3764   -9.4920  -65.9861
  9.860   -6.5131    0.3029   -6.7016    0.4064   -6.5150    0.3262   -6.5700    0.2836   -6.5421    0.3623   -6.5442    0.3675   -7.6063  -65.9889
  9.870   -6.4830    0.2971   -6.6639    0.3948   -6.4852    0.3199   -6.5374    0.2780   -6.5105    0.3540   -6.5127    0.3592   -6.0489  -65.9911
  9.880   -6.4536    0.2916   -6.6272    0.3840   -6.4560    0.3139   -6.5056    0.2727   -6.4797    0.3462   -6.4818    0.3514   -4.7735  -65.9929
  9.890   -6.4247    0.2864   -6.5915    0.3739   -6.4273    0.3083   -6.4746    0.2677   -6.4495    0.3389   -6.4516    0.3441   -3.7382  -65.9943
  9.900   -6.3963    0.2815   -6.5568    0.3645   -6.3992    0.3030   -6.4442    0.2630   -6.4199    0.3320   -6.4220    0.3372   -2.9049  -65.9953
  9.910   -6.3685    0.2768   -6.5229    0.3558   -6.3715    0.2980   -6.4145    0.2586   -6.3908    0.3255   -6.3930    0.3307   -2.2399  -65.9961
  9.920   -6.3412    0.2724   -6.4898    0.3476   -6.3443    0.2932   -6.3854    0.2545   -6.3623    0.3194   -6.3645    0.3246   -1.7138  -65.9968
  9.930   -6.3143    0.2681   -6.4576    0.3399   -6.3176    0.2886   -6.3568    0.2505   -6.3344    0.3136   -6.3365    0.3188   -1.3012  -65.9973
  9.940   -6.2879    0.2641   -6.4260    0.3327   -6.2913    0.2843   -6.3288    0.2468   -6.3069    0.3081   -6.3091    0.3133   -0.9802  -65.9976
  9.950   -6.2619    0.2603   -6.3952    0.3259   -6.2654    0.2802   -6.3014    0.2432   -6.2799    0.3029   -6.2821    0.3080   -0.7327  -65.9979
  9.960   -6.2363    0.2566   -6.3650    0.3195   -6.2399    0.2763   -6.2744    0.2399   -6.2534    0.2979   -6.2556    0.3031   -0.5434  -65.9981
  9.970   -6.2111    0.2531   -6.3354    0.3135   -6.2148    0.2725   -6.2479    0.2366   -6.2273    0.2932   -6.2295    0.2984   -0.3999  -65.9982
  9.980   -6.1862    0.2498   -6.3065    0.3078   -6.1901    0.2690   -6.2218    0.2336   -6.2016    0.2887   -6.2038    0.2939   -0.2920  -65.9983
  9.990   -6.1618    0.2466   -6.2781    0.3024   -6.1657    0.2655   -6.1962    0.2307   -6.1763    0.2845   -6.1785    0.2896   -0.2116  -65.9984
 10.000   -6.1376    0.2435   -6.2502    0.2972   -6.1416    0.2622   -6.1709    0.2279   -6.1514    0.2804   -6.1536    0.2855   -0.1521  -65.9984
