# Macroscopic dielectric function obtained with the BS equation.
#  RPA L0 with KS energies and KS wavefunctions     LOCAL FIELD EFFECTS INCLUDED
# RESONANT-ONLY calculation
# Coulomb term constructed with full W(G1,G2)
# Scissor operator energy =  0.8000 [eV]
# nstates included in the diagonalization = 96
# npweps  = 113
# npwwfn  = 259
# nbands  = 8
# loband  = 2
# nkibz   = 3
# nkbz    = 8
# Lorentzian broadening =  0.0000 [eV]
# List of q-points for the optical limit:
# q =  0.938821, 0.000000, 0.000000, [Reduced coords] 
# q =  0.000000, 0.938821, 0.000000, [Reduced coords] 
# q =  0.000000, 0.000000, 0.938821, [Reduced coords] 
# q =  0.000000, 0.813043, 0.813043, [Reduced coords] 
# q =  0.813043, 0.000000, 0.813043, [Reduced coords] 
# q =  0.813043, 0.813043, 0.000000, [Reduced coords] 
# omega [eV]    RE(eps(q=1)) IM(eps(q=1) RE(eps(q=2) ) ... DOS   IDOS
  0.000   54.7807    0.5210   54.7669    0.5609   54.7769    0.5596   54.7706    0.5141   54.8146    0.5828   54.8126    0.5848    0.0000    0.0000
  0.010   54.7812    0.5210   54.7674    0.5609   54.7774    0.5596   54.7711    0.5141   54.8151    0.5828   54.8132    0.5848    0.0000    0.0000
  0.020   54.7828    0.5211   54.7690    0.5610   54.7790    0.5596   54.7727    0.5142   54.8168    0.5828   54.8148    0.5849    0.0000    0.0000
  0.030   54.7855    0.5212   54.7717    0.5610   54.7817    0.5597   54.7754    0.5142   54.8194    0.5829   54.8174    0.5850    0.0000    0.0000
  0.040   54.7892    0.5213   54.7754    0.5611   54.7854    0.5598   54.7792    0.5143   54.8232    0.5830   54.8212    0.5851    0.0000    0.0000
  0.050   54.7940    0.5214   54.7802    0.5613   54.7902    0.5600   54.7840    0.5145   54.8280    0.5832   54.8260    0.5852    0.0000    0.0000
  0.060   54.7999    0.5216   54.7861    0.5615   54.7961    0.5602   54.7898    0.5146   54.8339    0.5834   54.8319    0.5854    0.0000    0.0000
  0.070   54.8068    0.5218   54.7930    0.5617   54.8031    0.5604   54.7968    0.5148   54.8408    0.5836   54.8388    0.5856    0.0000    0.0000
  0.080   54.8149    0.5220   54.8010    0.5619   54.8111    0.5606   54.8048    0.5151   54.8489    0.5838   54.8469    0.5859    0.0000    0.0000
  0.090   54.8239    0.5222   54.8101    0.5622   54.8202    0.5609   54.8139    0.5153   54.8580    0.5841   54.8560    0.5862    0.0000    0.0000
  0.100   54.8341    0.5225   54.8203    0.5625   54.8303    0.5612   54.8240    0.5156   54.8681    0.5844   54.8661    0.5865    0.0000    0.0000
  0.110   54.8453    0.5228   54.8315    0.5628   54.8416    0.5615   54.8353    0.5159   54.8794    0.5848   54.8774    0.5868    0.0000    0.0000
  0.120   54.8577    0.5232   54.8438    0.5632   54.8539    0.5619   54.8476    0.5163   54.8917    0.5852   54.8897    0.5872    0.0000    0.0000
  0.130   54.8710    0.5236   54.8572    0.5636   54.8672    0.5623   54.8610    0.5166   54.9051    0.5856   54.9031    0.5876    0.0000    0.0000
  0.140   54.8855    0.5240   54.8717    0.5640   54.8817    0.5627   54.8754    0.5170   54.9196    0.5860   54.9176    0.5881    0.0000    0.0000
  0.150   54.9011    0.5244   54.8872    0.5645   54.8973    0.5632   54.8910    0.5175   54.9352    0.5865   54.9332    0.5886    0.0000    0.0000
  0.160   54.9177    0.5249   54.9038    0.5650   54.9139    0.5637   54.9076    0.5180   54.9519    0.5870   54.9499    0.5891    0.0000    0.0000
  0.170   54.9354    0.5254   54.9215    0.5655   54.9316    0.5642   54.9253    0.5185   54.9696    0.5876   54.9676    0.5896    0.0000    0.0000
  0.180   54.9542    0.5259   54.9403    0.5661   54.9504    0.5648   54.9441    0.5190   54.9884    0.5882   54.9864    0.5902    0.0000    0.0000
  0.190   54.9741    0.5265   54.9602    0.5667   54.9703    0.5654   54.9640    0.5195   55.0084    0.5888   55.0064    0.5909    0.0000    0.0000
  0.200   54.9951    0.5271   54.9812    0.5673   54.9913    0.5660   54.9850    0.5201   55.0294    0.5895   55.0274    0.5915    0.0000    0.0000
  0.210   55.0172    0.5277   55.0032    0.5680   55.0133    0.5667   55.0070    0.5208   55.0515    0.5902   55.0495    0.5922    0.0000    0.0000
  0.220   55.0403    0.5284   55.0264    0.5687   55.0365    0.5674   55.0302    0.5214   55.0747    0.5909   55.0727    0.5929    0.0000    0.0000
  0.230   55.0646    0.5290   55.0506    0.5694   55.0608    0.5681   55.0545    0.5221   55.0990    0.5917   55.0970    0.5937    0.0000    0.0000
  0.240   55.0900    0.5298   55.0760    0.5702   55.0861    0.5689   55.0799    0.5228   55.1245    0.5925   55.1225    0.5945    0.0000    0.0000
  0.250   55.1165    0.5305   55.1025    0.5710   55.1126    0.5697   55.1063    0.5236   55.1510    0.5933   55.1490    0.5953    0.0000    0.0000
  0.260   55.1441    0.5313   55.1300    0.5718   55.1402    0.5705   55.1339    0.5243   55.1786    0.5942   55.1766    0.5962    0.0000    0.0000
  0.270   55.1728    0.5321   55.1587    0.5727   55.1689    0.5714   55.1626    0.5252   55.2074    0.5951   55.2054    0.5971    0.0000    0.0000
  0.280   55.2026    0.5330   55.1885    0.5736   55.1987    0.5723   55.1924    0.5260   55.2373    0.5960   55.2353    0.5981    0.0000    0.0000
  0.290   55.2335    0.5338   55.2195    0.5745   55.2296    0.5732   55.2234    0.5269   55.2683    0.5970   55.2662    0.5990    0.0000    0.0000
  0.300   55.2656    0.5348   55.2515    0.5755   55.2617    0.5742   55.2554    0.5278   55.3004    0.5980   55.2984    0.6000    0.0000    0.0000
  0.310   55.2988    0.5357   55.2847    0.5765   55.2949    0.5752   55.2886    0.5287   55.3336    0.5990   55.3316    0.6011    0.0000    0.0000
  0.320   55.3331    0.5367   55.3190    0.5775   55.3292    0.5762   55.3230    0.5297   55.3680    0.6001   55.3660    0.6022    0.0000    0.0000
  0.330   55.3686    0.5377   55.3544    0.5786   55.3647    0.5773   55.3584    0.5307   55.4035    0.6013   55.4015    0.6033    0.0000    0.0000
  0.340   55.4052    0.5387   55.3910    0.5797   55.4013    0.5784   55.3950    0.5318   55.4402    0.6024   55.4382    0.6045    0.0000    0.0000
  0.350   55.4430    0.5398   55.4288    0.5809   55.4390    0.5796   55.4328    0.5328   55.4780    0.6036   55.4760    0.6057    0.0000    0.0000
  0.360   55.4819    0.5409   55.4677    0.5821   55.4779    0.5807   55.4717    0.5339   55.5170    0.6048   55.5150    0.6069    0.0000    0.0000
  0.370   55.5219    0.5421   55.5077    0.5833   55.5179    0.5820   55.5117    0.5351   55.5571    0.6061   55.5551    0.6082    0.0000    0.0000
  0.380   55.5631    0.5433   55.5489    0.5845   55.5592    0.5832   55.5529    0.5363   55.5984    0.6074   55.5964    0.6095    0.0000    0.0000
  0.390   55.6055    0.5445   55.5913    0.5858   55.6015    0.5845   55.5953    0.5375   55.6409    0.6088   55.6389    0.6108    0.0000    0.0000
  0.400   55.6491    0.5457   55.6348    0.5872   55.6451    0.5858   55.6389    0.5387   55.6845    0.6102   55.6825    0.6122    0.0000    0.0000
  0.410   55.6938    0.5470   55.6795    0.5885   55.6898    0.5872   55.6836    0.5400   55.7294    0.6116   55.7273    0.6136    0.0000    0.0000
  0.420   55.7398    0.5483   55.7254    0.5899   55.7357    0.5886   55.7295    0.5413   55.7754    0.6131   55.7734    0.6151    0.0000    0.0000
  0.430   55.7869    0.5497   55.7725    0.5914   55.7828    0.5900   55.7766    0.5427   55.8226    0.6146   55.8205    0.6166    0.0000    0.0000
  0.440   55.8352    0.5511   55.8208    0.5929   55.8311    0.5915   55.8249    0.5441   55.8710    0.6161   55.8689    0.6182    0.0000    0.0000
  0.450   55.8847    0.5525   55.8703    0.5944   55.8806    0.5930   55.8744    0.5455   55.9206    0.6177   55.9185    0.6198    0.0000    0.0000
  0.460   55.9354    0.5540   55.9209    0.5959   55.9313    0.5946   55.9251    0.5470   55.9714    0.6193   55.9694    0.6214    0.0000    0.0000
  0.470   55.9874    0.5555   55.9729    0.5975   55.9833    0.5962   55.9771    0.5485   56.0234    0.6210   56.0214    0.6231    0.0000    0.0000
  0.480   56.0405    0.5570   56.0260    0.5992   56.0364    0.5978   56.0302    0.5500   56.0767    0.6227   56.0746    0.6248    0.0000    0.0000
  0.490   56.0949    0.5586   56.0803    0.6008   56.0908    0.5995   56.0846    0.5516   56.1311    0.6244   56.1291    0.6265    0.0000    0.0000
  0.500   56.1505    0.5602   56.1359    0.6026   56.1464    0.6012   56.1402    0.5532   56.1869    0.6262   56.1848    0.6283    0.0000    0.0000
  0.510   56.2074    0.5619   56.1928    0.6043   56.2032    0.6030   56.1971    0.5548   56.2438    0.6281   56.2418    0.6301    0.0000    0.0000
  0.520   56.2655    0.5636   56.2509    0.6061   56.2613    0.6048   56.2552    0.5565   56.3021    0.6299   56.3000    0.6320    0.0000    0.0000
  0.530   56.3249    0.5653   56.3102    0.6080   56.3207    0.6066   56.3146    0.5583   56.3616    0.6319   56.3595    0.6339    0.0000    0.0000
  0.540   56.3855    0.5671   56.3708    0.6098   56.3813    0.6085   56.3752    0.5600   56.4223    0.6338   56.4203    0.6359    0.0000    0.0000
  0.550   56.4475    0.5689   56.4327    0.6118   56.4433    0.6104   56.4371    0.5618   56.4843    0.6358   56.4823    0.6379    0.0000    0.0000
  0.560   56.5107    0.5707   56.4959    0.6137   56.5064    0.6124   56.5003    0.5637   56.5477    0.6379   56.5456    0.6400    0.0000    0.0000
  0.570   56.5752    0.5726   56.5603    0.6158   56.5709    0.6144   56.5648    0.5656   56.6123    0.6400   56.6103    0.6421    0.0000    0.0000
  0.580   56.6410    0.5745   56.6261    0.6178   56.6367    0.6165   56.6306    0.5675   56.6782    0.6421   56.6762    0.6442    0.0000    0.0000
  0.590   56.7081    0.5765   56.6932    0.6199   56.7038    0.6186   56.6977    0.5695   56.7454    0.6443   56.7434    0.6464    0.0000    0.0000
  0.600   56.7765    0.5785   56.7616    0.6220   56.7722    0.6207   56.7661    0.5715   56.8140    0.6466   56.8120    0.6486    0.0000    0.0000
  0.610   56.8463    0.5806   56.8313    0.6242   56.8420    0.6229   56.8359    0.5735   56.8839    0.6488   56.8819    0.6509    0.0000    0.0000
  0.620   56.9174    0.5827   56.9024    0.6265   56.9131    0.6251   56.9070    0.5756   56.9551    0.6512   56.9531    0.6533    0.0000    0.0000
  0.630   56.9899    0.5848   56.9748    0.6288   56.9855    0.6274   56.9794    0.5778   57.0277    0.6536   57.0257    0.6556    0.0000    0.0000
  0.640   57.0637    0.5870   57.0486    0.6311   57.0593    0.6297   57.0532    0.5800   57.1017    0.6560   57.0996    0.6581    0.0000    0.0000
  0.650   57.1389    0.5893   57.1237    0.6335   57.1345    0.6321   57.1284    0.5822   57.1770    0.6585   57.1749    0.6606    0.0000    0.0000
  0.660   57.2154    0.5915   57.2002    0.6359   57.2110    0.6345   57.2049    0.5845   57.2537    0.6610   57.2516    0.6631    0.0000    0.0000
  0.670   57.2934    0.5939   57.2781    0.6383   57.2889    0.6370   57.2829    0.5868   57.3318    0.6636   57.3297    0.6657    0.0000    0.0000
  0.680   57.3728    0.5962   57.3574    0.6409   57.3683    0.6395   57.3622    0.5892   57.4113    0.6662   57.4092    0.6683    0.0000    0.0000
  0.690   57.4535    0.5986   57.4382    0.6434   57.4490    0.6421   57.4430    0.5916   57.4922    0.6689   57.4902    0.6710    0.0000    0.0000
  0.700   57.5357    0.6011   57.5203    0.6460   57.5312    0.6447   57.5252    0.5940   57.5746    0.6716   57.5725    0.6737    0.0000    0.0000
  0.710   57.6194    0.6036   57.6039    0.6487   57.6148    0.6474   57.6088    0.5965   57.6584    0.6744   57.6563    0.6765    0.0000    0.0000
  0.720   57.7045    0.6062   57.6889    0.6514   57.6999    0.6501   57.6939    0.5991   57.7436    0.6772   57.7415    0.6793    0.0000    0.0000
  0.730   57.7910    0.6088   57.7754    0.6542   57.7864    0.6528   57.7804    0.6017   57.8303    0.6801   57.8283    0.6822    0.0000    0.0000
  0.740   57.8790    0.6114   57.8634    0.6570   57.8744    0.6557   57.8684    0.6044   57.9185    0.6831   57.9164    0.6852    0.0000    0.0000
  0.750   57.9685    0.6142   57.9529    0.6599   57.9639    0.6585   57.9579    0.6071   58.0082    0.6861   58.0061    0.6882    0.0000    0.0000
  0.760   58.0596    0.6169   58.0438    0.6628   58.0549    0.6615   58.0489    0.6098   58.0994    0.6891   58.0973    0.6912    0.0000    0.0000
  0.770   58.1521    0.6197   58.1363    0.6658   58.1474    0.6645   58.1415    0.6126   58.1921    0.6922   58.1900    0.6944    0.0000    0.0000
  0.780   58.2461    0.6226   58.2303    0.6689   58.2414    0.6675   58.2355    0.6155   58.2863    0.6954   58.2842    0.6975    0.0000    0.0000
  0.790   58.3417    0.6255   58.3258    0.6720   58.3370    0.6706   58.3311    0.6184   58.3821    0.6987   58.3800    0.7008    0.0000    0.0000
  0.800   58.4389    0.6285   58.4229    0.6751   58.4341    0.6738   58.4282    0.6214   58.4794    0.7019   58.4773    0.7041    0.0000    0.0000
  0.810   58.5376    0.6315   58.5216    0.6783   58.5328    0.6770   58.5269    0.6244   58.5783    0.7053   58.5762    0.7074    0.0000    0.0000
  0.820   58.6379    0.6346   58.6219    0.6816   58.6331    0.6802   58.6272    0.6275   58.6788    0.7087   58.6767    0.7108    0.0000    0.0000
  0.830   58.7399    0.6377   58.7237    0.6849   58.7350    0.6836   58.7291    0.6306   58.7809    0.7122   58.7788    0.7143    0.0000    0.0000
  0.840   58.8434    0.6409   58.8272    0.6883   58.8385    0.6870   58.8327    0.6338   58.8847    0.7157   58.8826    0.7178    0.0000    0.0000
  0.850   58.9486    0.6442   58.9323    0.6918   58.9436    0.6904   58.9378    0.6370   58.9900    0.7193   58.9879    0.7214    0.0000    0.0000
  0.860   59.0554    0.6475   59.0390    0.6953   59.0504    0.6939   59.0446    0.6404   59.0970    0.7230   59.0950    0.7251    0.0000    0.0000
  0.870   59.1639    0.6508   59.1475    0.6989   59.1589    0.6975   59.1531    0.6437   59.2057    0.7267   59.2036    0.7289    0.0000    0.0000
  0.880   59.2740    0.6543   59.2576    0.7025   59.2690    0.7011   59.2633    0.6472   59.3161    0.7305   59.3140    0.7327    0.0000    0.0000
  0.890   59.3859    0.6578   59.3694    0.7062   59.3808    0.7048   59.3751    0.6506   59.4282    0.7344   59.4261    0.7365    0.0000    0.0000
  0.900   59.4995    0.6613   59.4829    0.7100   59.4944    0.7086   59.4887    0.6542   59.5420    0.7383   59.5399    0.7405    0.0000    0.0000
  0.910   59.6148    0.6649   59.5982    0.7138   59.6097    0.7124   59.6040    0.6578   59.6576    0.7424   59.6555    0.7445    0.0000    0.0000
  0.920   59.7319    0.6686   59.7152    0.7177   59.7268    0.7163   59.7211    0.6615   59.7749    0.7464   59.7728    0.7486    0.0000    0.0000
  0.930   59.8508    0.6724   59.8340    0.7217   59.8456    0.7203   59.8399    0.6652   59.8940    0.7506   59.8919    0.7527    0.0000    0.0000
  0.940   59.9715    0.6762   59.9546    0.7258   59.9662    0.7244   59.9606    0.6690   60.0149    0.7548   60.0128    0.7569    0.0000    0.0000
  0.950   60.0939    0.6801   60.0770    0.7299   60.0886    0.7285   60.0830    0.6729   60.1376    0.7591   60.1355    0.7612    0.0000    0.0000
  0.960   60.2182    0.6840   60.2012    0.7341   60.2129    0.7327   60.2073    0.6769   60.2621    0.7635   60.2600    0.7656    0.0000    0.0000
  0.970   60.3444    0.6880   60.3273    0.7383   60.3390    0.7369   60.3335    0.6809   60.3885    0.7679   60.3864    0.7701    0.0000    0.0000
  0.980   60.4725    0.6921   60.4552    0.7427   60.4670    0.7413   60.4615    0.6850   60.5168    0.7725   60.5147    0.7746    0.0000    0.0000
  0.990   60.6024    0.6963   60.5851    0.7471   60.5969    0.7457   60.5914    0.6891   60.6470    0.7771   60.6449    0.7792    0.0000    0.0000
  1.000   60.7343    0.7005   60.7169    0.7516   60.7288    0.7502   60.7233    0.6934   60.7791    0.7818   60.7770    0.7839    0.0000    0.0000
  1.010   60.8681    0.7048   60.8506    0.7561   60.8625    0.7547   60.8571    0.6977   60.9132    0.7865   60.9111    0.7887    0.0000    0.0000
  1.020   61.0038    0.7092   60.9863    0.7608   60.9983    0.7594   60.9928    0.7021   61.0492    0.7914   61.0471    0.7935    0.0000    0.0000
  1.030   61.1416    0.7137   61.1240    0.7655   61.1360    0.7641   61.1306    0.7065   61.1873    0.7963   61.1852    0.7985    0.0000    0.0000
  1.040   61.2814    0.7182   61.2637    0.7703   61.2757    0.7689   61.2704    0.7111   61.3273    0.8014   61.3252    0.8035    0.0000    0.0000
  1.050   61.4232    0.7228   61.4054    0.7752   61.4175    0.7738   61.4122    0.7157   61.4694    0.8065   61.4673    0.8086    0.0000    0.0000
  1.060   61.5671    0.7275   61.5492    0.7802   61.5613    0.7788   61.5560    0.7204   61.6136    0.8117   61.6115    0.8138    0.0000    0.0000
  1.070   61.7130    0.7323   61.6950    0.7853   61.7072    0.7839   61.7020    0.7252   61.7598    0.8170   61.7577    0.8191    0.0000    0.0000
  1.080   61.8611    0.7372   61.8430    0.7904   61.8553    0.7890   61.8500    0.7301   61.9082    0.8224   61.9061    0.8245    0.0000    0.0000
  1.090   62.0114    0.7421   61.9932    0.7957   62.0055    0.7943   62.0003    0.7350   62.0587    0.8278   62.0566    0.8300    0.0000    0.0000
  1.100   62.1638    0.7472   62.1455    0.8010   62.1578    0.7996   62.1526    0.7400   62.2114    0.8334   62.2093    0.8356    0.0000    0.0000
  1.110   62.3183    0.7523   62.3000    0.8065   62.3124    0.8051   62.3072    0.7452   62.3663    0.8391   62.3642    0.8412    0.0000    0.0000
  1.120   62.4752    0.7575   62.4567    0.8120   62.4691    0.8106   62.4640    0.7504   62.5235    0.8449   62.5213    0.8470    0.0000    0.0000
  1.130   62.6342    0.7628   62.6157    0.8176   62.6282    0.8162   62.6231    0.7557   62.6829    0.8507   62.6807    0.8529    0.0000    0.0000
  1.140   62.7956    0.7682   62.7769    0.8234   62.7895    0.8219   62.7844    0.7611   62.8446    0.8567   62.8424    0.8589    0.0000    0.0000
  1.150   62.9593    0.7737   62.9405    0.8292   62.9531    0.8278   62.9481    0.7666   63.0086    0.8628   63.0064    0.8650    0.0000    0.0000
  1.160   63.1253    0.7793   63.1064    0.8351   63.1191    0.8337   63.1141    0.7722   63.1749    0.8690   63.1728    0.8712    0.0000    0.0000
  1.170   63.2937    0.7850   63.2747    0.8411   63.2874    0.8397   63.2825    0.7779   63.3437    0.8753   63.3415    0.8775    0.0000    0.0000
  1.180   63.4645    0.7908   63.4454    0.8473   63.4582    0.8459   63.4533    0.7837   63.5149    0.8817   63.5127    0.8839    0.0000    0.0000
  1.190   63.6378    0.7967   63.6186    0.8535   63.6314    0.8521   63.6266    0.7896   63.6885    0.8883   63.6863    0.8904    0.0000    0.0000
  1.200   63.8135    0.8027   63.7942    0.8599   63.8071    0.8585   63.8023    0.7957   63.8646    0.8949   63.8624    0.8971    0.0000    0.0000
  1.210   63.9918    0.8088   63.9723    0.8664   63.9853    0.8650   63.9805    0.8018   64.0432    0.9017   64.0410    0.9038    0.0000    0.0000
  1.220   64.1726    0.8150   64.1530    0.8730   64.1660    0.8715   64.1613    0.8080   64.2244    0.9085   64.2222    0.9107    0.0000    0.0000
  1.230   64.3560    0.8214   64.3363    0.8797   64.3493    0.8782   64.3447    0.8143   64.4081    0.9156   64.4060    0.9177    0.0000    0.0000
  1.240   64.5420    0.8278   64.5222    0.8865   64.5353    0.8851   64.5307    0.8208   64.5945    0.9227   64.5924    0.9248    0.0000    0.0000
  1.250   64.7307    0.8344   64.7107    0.8934   64.7239    0.8920   64.7194    0.8274   64.7836    0.9299   64.7815    0.9321    0.0000    0.0000
  1.260   64.9221    0.8410   64.9020    0.9005   64.9152    0.8991   64.9107    0.8341   64.9754    0.9373   64.9732    0.9395    0.0000    0.0000
  1.270   65.1162    0.8478   65.0960    0.9077   65.1093    0.9063   65.1049    0.8409   65.1699    0.9449   65.1678    0.9470    0.0000    0.0000
  1.280   65.3131    0.8548   65.2927    0.9150   65.3061    0.9136   65.3017    0.8478   65.3672    0.9525   65.3651    0.9547    0.0000    0.0000
  1.290   65.5128    0.8618   65.4923    0.9225   65.5057    0.9211   65.5015    0.8549   65.5674    0.9603   65.5652    0.9625    0.0000    0.0000
  1.300   65.7154    0.8690   65.6948    0.9301   65.7083    0.9287   65.7040    0.8621   65.7704    0.9683   65.7682    0.9704    0.0000    0.0000
  1.310   65.9209    0.8763   65.9001    0.9378   65.9137    0.9364   65.9095    0.8694   65.9763    0.9763   65.9742    0.9785    0.0000    0.0000
  1.320   66.1294    0.8838   66.1085    0.9457   66.1221    0.9443   66.1180    0.8769   66.1852    0.9846   66.1831    0.9867    0.0000    0.0000
  1.330   66.3408    0.8913   66.3198    0.9537   66.3335    0.9523   66.3294    0.8845   66.3971    0.9930   66.3950    0.9951    0.0000    0.0000
  1.340   66.5553    0.8991   66.5341    0.9619   66.5479    0.9605   66.5439    0.8922   66.6121    1.0015   66.6099    1.0037    0.0000    0.0000
  1.350   66.7729    0.9069   66.7516    0.9702   66.7654    0.9688   66.7615    0.9001   66.8302    1.0102   66.8280    1.0124    0.0000    0.0000
  1.360   66.9937    0.9149   66.9722    0.9787   66.9861    0.9773   66.9823    0.9081   67.0514    1.0190   67.0492    1.0212    0.0000    0.0000
  1.370   67.2176    0.9231   67.1960    0.9873   67.2100    0.9859   67.2062    0.9163   67.2758    1.0281   67.2737    1.0302    0.0000    0.0000
  1.380   67.4448    0.9314   67.4230    0.9961   67.4371    0.9947   67.4334    0.9246   67.5035    1.0372   67.5014    1.0394    0.0000    0.0000
  1.390   67.6753    0.9399   67.6534    1.0051   67.6675    1.0036   67.6639    0.9331   67.7345    1.0466   67.7324    1.0488    0.0000    0.0000
  1.400   67.9092    0.9485   67.8870    1.0142   67.9013    1.0128   67.8978    0.9418   67.9689    1.0561   67.9667    1.0583    0.0000    0.0000
  1.410   68.1464    0.9573   68.1241    1.0235   68.1384    1.0221   68.1350    0.9506   68.2067    1.0659   68.2045    1.0680    0.0000    0.0000
  1.420   68.3872    0.9662   68.3647    1.0330   68.3791    1.0315   68.3757    0.9596   68.4479    1.0758   68.4458    1.0779    0.0000    0.0000
  1.430   68.6314    0.9754   68.6088    1.0426   68.6232    1.0412   68.6200    0.9687   68.6927    1.0859   68.6906    1.0880    0.0000    0.0000
  1.440   68.8793    0.9847   68.8565    1.0524   68.8710    1.0510   68.8679    0.9781   68.9411    1.0961   68.9390    1.0983    0.0000    0.0000
  1.450   69.1308    0.9942   69.1078    1.0625   69.1224    1.0610   69.1193    0.9876   69.1932    1.1066   69.1910    1.1088    0.0000    0.0000
  1.460   69.3860    1.0038   69.3628    1.0727   69.3775    1.0713   69.3746    0.9973   69.4490    1.1173   69.4468    1.1195    0.0000    0.0000
  1.470   69.6450    1.0137   69.6216    1.0831   69.6364    1.0817   69.6335    1.0072   69.7085    1.1282   69.7064    1.1304    0.0000    0.0000
  1.480   69.9078    1.0237   69.8842    1.0937   69.8991    1.0923   69.8964    1.0173   69.9720    1.1393   69.9698    1.1415    0.0000    0.0000
  1.490   70.1745    1.0340   70.1508    1.1045   70.1657    1.1031   70.1631    1.0276   70.2393    1.1506   70.2371    1.1528    0.0000    0.0000
  1.500   70.4452    1.0444   70.4213    1.1156   70.4364    1.1141   70.4338    1.0380   70.5106    1.1621   70.5085    1.1643    0.0000    0.0000
  1.510   70.7200    1.0551   70.6959    1.1268   70.7110    1.1254   70.7086    1.0487   70.7860    1.1739   70.7839    1.1761    0.0000    0.0000
  1.520   70.9989    1.0659   70.9746    1.1383   70.9898    1.1369   70.9875    1.0596   71.0656    1.1859   71.0634    1.1881    0.0000    0.0000
  1.530   71.2820    1.0770   71.2575    1.1500   71.2728    1.1486   71.2706    1.0708   71.3493    1.1981   71.3471    1.2003    0.0000    0.0000
  1.540   71.5694    1.0883   71.5446    1.1619   71.5601    1.1605   71.5580    1.0821   71.6374    1.2106   71.6352    1.2128    0.0000    0.0000
  1.550   71.8611    1.0998   71.8362    1.1741   71.8517    1.1727   71.8498    1.0937   71.9298    1.2234   71.9276    1.2255    0.0000    0.0000
  1.560   72.1573    1.1116   72.1321    1.1865   72.1477    1.1851   72.1460    1.1055   72.2266    1.2363   72.2245    1.2385    0.0000    0.0000
  1.570   72.4580    1.1236   72.4326    1.1992   72.4483    1.1978   72.4467    1.1176   72.5280    1.2496   72.5259    1.2517    0.0000    0.0000
  1.580   72.7633    1.1359   72.7377    1.2121   72.7535    1.2107   72.7520    1.1299   72.8341    1.2631   72.8319    1.2653    0.0000    0.0000
  1.590   73.0733    1.1484   73.0474    1.2253   73.0634    1.2239   73.0620    1.1424   73.1448    1.2769   73.1426    1.2791   -0.0000   -0.0000
  1.600   73.3881    1.1611   73.3620    1.2388   73.3780    1.2374   73.3768    1.1553   73.4603    1.2910   73.4582    1.2932   -0.0000   -0.0000
  1.610   73.7078    1.1742   73.6814    1.2525   73.6976    1.2511   73.6965    1.1684   73.7808    1.3054   73.7786    1.3075   -0.0000   -0.0000
  1.620   74.0324    1.1875   74.0059    1.2666   74.0221    1.2651   74.0212    1.1817   74.1062    1.3201   74.1041    1.3222   -0.0000   -0.0000
  1.630   74.3622    1.2010   74.3353    1.2809   74.3517    1.2795   74.3510    1.1954   74.4367    1.3351   74.4346    1.3372   -0.0000   -0.0000
  1.640   74.6971    1.2149   74.6700    1.2955   74.6865    1.2941   74.6859    1.2093   74.7725    1.3504   74.7703    1.3525   -0.0000   -0.0000
  1.650   75.0373    1.2291   75.0099    1.3104   75.0265    1.3090   75.0262    1.2235   75.1135    1.3660   75.1113    1.3681   -0.0000   -0.0000
  1.660   75.3829    1.2435   75.3553    1.3257   75.3720    1.3243   75.3718    1.2381   75.4599    1.3819   75.4578    1.3841   -0.0000   -0.0000
  1.670   75.7340    1.2583   75.7061    1.3413   75.7229    1.3399   75.7229    1.2530   75.8119    1.3983   75.8097    1.4004   -0.0000   -0.0000
  1.680   76.0907    1.2734   76.0625    1.3572   76.0795    1.3558   76.0797    1.2681   76.1695    1.4149   76.1673    1.4170   -0.0000   -0.0000
  1.690   76.4531    1.2888   76.4247    1.3735   76.4418    1.3720   76.4422    1.2837   76.5328    1.4319   76.5307    1.4340   -0.0000   -0.0000
  1.700   76.8214    1.3046   76.7927    1.3901   76.8099    1.3887   76.8105    1.2995   76.9020    1.4493   76.8999    1.4514   -0.0000   -0.0000
  1.710   77.1957    1.3207   77.1667    1.4071   77.1840    1.4057   77.1848    1.3157   77.2772    1.4671   77.2751    1.4692   -0.0000   -0.0000
  1.720   77.5761    1.3372   77.5468    1.4244   77.5642    1.4230   77.5653    1.3323   77.6586    1.4853   77.6564    1.4874   -0.0000   -0.0000
  1.730   77.9627    1.3540   77.9331    1.4422   77.9507    1.4408   77.9519    1.3493   78.0462    1.5038   78.0440    1.5059   -0.0000   -0.0000
  1.740   78.3557    1.3713   78.3258    1.4603   78.3435    1.4589   78.3450    1.3666   78.4402    1.5228   78.4380    1.5249   -0.0000   -0.0000
  1.750   78.7552    1.3889   78.7249    1.4789   78.7428    1.4775   78.7445    1.3843   78.8407    1.5423   78.8386    1.5443   -0.0000   -0.0000
  1.760   79.1614    1.4069   79.1308    1.4978   79.1488    1.4964   79.1508    1.4025   79.2479    1.5621   79.2458    1.5642   -0.0000   -0.0000
  1.770   79.5743    1.4253   79.5434    1.5173   79.5616    1.5159   79.5638    1.4210   79.6619    1.5824   79.6598    1.5845   -0.0000   -0.0000
  1.780   79.9943    1.4442   79.9630    1.5371   79.9813    1.5357   79.9838    1.4400   80.0829    1.6032   80.0809    1.6053   -0.0000   -0.0000
  1.790   80.4213    1.4635   80.3897    1.5574   80.4082    1.5560   80.4109    1.4594   80.5111    1.6245   80.5090    1.6265   -0.0000   -0.0000
  1.800   80.8557    1.4832   80.8237    1.5782   80.8423    1.5768   80.8454    1.4793   80.9466    1.6463   80.9445    1.6483   -0.0000   -0.0000
  1.810   81.2974    1.5035   81.2651    1.5995   81.2839    1.5981   81.2872    1.4997   81.3895    1.6686   81.3874    1.6706   -0.0000   -0.0000
  1.820   81.7468    1.5242   81.7141    1.6213   81.7330    1.6199   81.7367    1.5205   81.8401    1.6914   81.8380    1.6934   -0.0000   -0.0000
  1.830   82.2040    1.5454   82.1709    1.6436   82.1900    1.6422   82.1940    1.5419   82.2985    1.7147   82.2965    1.7167   -0.0000   -0.0000
  1.840   82.6692    1.5671   82.6357    1.6664   82.6550    1.6651   82.6593    1.5638   82.7649    1.7387   82.7629    1.7407   -0.0000   -0.0000
  1.850   83.1426    1.5893   83.1087    1.6898   83.1281    1.6885   83.1328    1.5862   83.2396    1.7632   83.2376    1.7651   -0.0000   -0.0000
  1.860   83.6244    1.6121   83.5901    1.7138   83.6096    1.7125   83.6146    1.6092   83.7226    1.7883   83.7206    1.7902   -0.0000   -0.0000
  1.870   84.1147    1.6355   84.0800    1.7384   84.0997    1.7370   84.1051    1.6327   84.2143    1.8140   84.2123    1.8160   -0.0000   -0.0000
  1.880   84.6138    1.6594   84.5787    1.7635   84.5986    1.7622   84.6043    1.6568   84.7148    1.8404   84.7128    1.8423   -0.0000   -0.0000
  1.890   85.1219    1.6839   85.0864    1.7893   85.1065    1.7880   85.1126    1.6816   85.2243    1.8674   85.2224    1.8693   -0.0000   -0.0000
  1.900   85.6393    1.7091   85.6033    1.8158   85.6236    1.8145   85.6301    1.7070   85.7431    1.8951   85.7412    1.8970   -0.0000   -0.0000
  1.910   86.1662    1.7349   86.1297    1.8429   86.1502    1.8416   86.1571    1.7330   86.2714    1.9235   86.2695    1.9254   -0.0000   -0.0000
  1.920   86.7027    1.7614   86.6658    1.8707   86.6865    1.8694   86.6938    1.7597   86.8095    1.9527   86.8076    1.9545   -0.0000   -0.0000
  1.930   87.2493    1.7886   87.2118    1.8992   87.2327    1.8979   87.2405    1.7871   87.3576    1.9826   87.3557    1.9844   -0.0000   -0.0000
  1.940   87.8060    1.8164   87.7681    1.9285   87.7892    1.9272   87.7974    1.8152   87.9159    2.0133   87.9140    2.0151   -0.0000   -0.0000
  1.950   88.3733    1.8450   88.3348    1.9586   88.3561    1.9573   88.3648    1.8441   88.4848    2.0447   88.4829    2.0466   -0.0000   -0.0000
  1.960   88.9513    1.8744   88.9123    1.9894   88.9338    1.9881   88.9430    1.8737   89.0644    2.0771   89.0626    2.0789   -0.0000   -0.0000
  1.970   89.5404    1.9046   89.5008    2.0211   89.5226    2.0198   89.5323    1.9041   89.6552    2.1103   89.6534    2.1120   -0.0000   -0.0000
  1.980   90.1408    1.9355   90.1007    2.0536   90.1227    2.0524   90.1330    1.9354   90.2574    2.1444   90.2556    2.1461   -0.0000   -0.0000
  1.990   90.7529    1.9674   90.7123    2.0870   90.7345    2.0858   90.7453    1.9676   90.8713    2.1794   90.8695    2.1811   -0.0000   -0.0000
  2.000   91.3770    2.0001   91.3358    2.1213   91.3582    2.1201   91.3696    2.0006   91.4973    2.2154   91.4955    2.2171   -0.0000   -0.0000
  2.010   92.0135    2.0337   91.9717    2.1566   91.9943    2.1554   92.0063    2.0345   92.1356    2.2523   92.1339    2.2540   -0.0000   -0.0000
  2.020   92.6626    2.0683   92.6202    2.1929   92.6431    2.1917   92.6556    2.0694   92.7866    2.2904   92.7849    2.2920   -0.0000   -0.0000
  2.030   93.3247    2.1038   93.2817    2.2302   93.3048    2.2290   93.3180    2.1054   93.4508    2.3295   93.4491    2.3311   -0.0000   -0.0000
  2.040   94.0003    2.1404   93.9566    2.2685   93.9800    2.2673   93.9939    2.1423   94.1284    2.3697   94.1267    2.3713   -0.0000   -0.0000
  2.050   94.6897    2.1780   94.6453    2.3080   94.6690    2.3068   94.6835    2.1803   94.8198    2.4111   94.8182    2.4127   -0.0000   -0.0000
  2.060   95.3932    2.2167   95.3482    2.3486   95.3721    2.3474   95.3874    2.2195   95.5256    2.4536   95.5240    2.4552   -0.0000   -0.0000
  2.070   96.1115    2.2566   96.0657    2.3903   96.0899    2.3892   96.1059    2.2598   96.2460    2.4975   96.2445    2.4990   -0.0000   -0.0000
  2.080   96.8447    2.2977   96.7983    2.4334   96.8228    2.4323   96.8395    2.3013   96.9816    2.5426   96.9801    2.5441   -0.0000   -0.0000
  2.090   97.5935    2.3400   97.5463    2.4777   97.5711    2.4766   97.5887    2.3440   97.7327    2.5891   97.7312    2.5906   -0.0000   -0.0000
  2.100   98.3584    2.3835   98.3104    2.5233   98.3355    2.5223   98.3539    2.3881   98.4999    2.6370   98.4985    2.6384   -0.0000   -0.0000
  2.110   99.1397    2.4285   99.0909    2.5704   99.1163    2.5694   99.1355    2.4335   99.2837    2.6864   99.2823    2.6878   -0.0000   -0.0000
  2.120   99.9380    2.4748   99.8884    2.6189   99.9141    2.6179   99.9343    2.4804  100.0846    2.7373  100.0833    2.7386   -0.0000   -0.0000
  2.130  100.7539    2.5225  100.7034    2.6689  100.7295    2.6679  100.7506    2.5287  100.9031    2.7898  100.9018    2.7911   -0.0000   -0.0000
  2.140  101.5879    2.5718  101.5366    2.7205  101.5629    2.7195  101.5850    2.5786  101.7398    2.8439  101.7386    2.8452   -0.0000   -0.0000
  2.150  102.4406    2.6227  102.3884    2.7737  102.4151    2.7728  102.4382    2.6300  102.5953    2.8998  102.5941    2.9010   -0.0000   -0.0000
  2.160  103.3126    2.6752  103.2595    2.8287  103.2865    2.8278  103.3107    2.6832  103.4702    2.9575  103.4690    2.9587   -0.0000   -0.0000
  2.170  104.2046    2.7294  104.1505    2.8854  104.1779    2.8846  104.2031    2.7381  104.3651    3.0170  104.3640    3.0182   -0.0000   -0.0000
  2.180  105.1172    2.7855  105.0622    2.9440  105.0899    2.9432  105.1163    2.7948  105.2808    3.0786  105.2798    3.0797   -0.0000   -0.0000
  2.190  106.0511    2.8434  105.9951    3.0046  106.0232    3.0038  106.0508    2.8534  106.2179    3.1422  106.2169    3.1432   -0.0000   -0.0000
  2.200  107.0071    2.9032  106.9500    3.0672  106.9786    3.0664  107.0074    2.9141  107.1771    3.2079  107.1762    3.2089   -0.0000   -0.0000
  2.210  107.9860    2.9651  107.9278    3.1319  107.9567    3.1312  107.9868    2.9768  108.1593    3.2759  108.1585    3.2768   -0.0000   -0.0000
  2.220  108.9884    3.0292  108.9291    3.1989  108.9585    3.1982  108.9899    3.0417  109.1653    3.3462  109.1645    3.3471   -0.0000   -0.0000
  2.230  110.0154    3.0955  109.9549    3.2682  109.9847    3.2675  110.0176    3.1089  110.1958    3.4190  110.1951    3.4198   -0.0000   -0.0000
  2.240  111.0677    3.1642  111.0060    3.3399  111.0362    3.3393  111.0706    3.1785  111.2518    3.4944  111.2512    3.4952   -0.0000   -0.0000
  2.250  112.1463    3.2354  112.0834    3.4143  112.1141    3.4137  112.1499    3.2507  112.3342    3.5725  112.3337    3.5732   -0.0000   -0.0000
  2.260  113.2521    3.3091  113.1880    3.4913  113.2191    3.4908  113.2566    3.3254  113.4440    3.6534  113.4436    3.6540   -0.0000   -0.0000
  2.270  114.3863    3.3856  114.3208    3.5711  114.3524    3.5707  114.3915    3.4030  114.5822    3.7373  114.5819    3.7379   -0.0000   -0.0000
  2.280  115.5497    3.4649  115.4829    3.6539  115.5150    3.6535  115.5559    3.4834  115.7499    3.8244  115.7497    3.8248   -0.0000   -0.0000
  2.290  116.7437    3.5472  116.6754    3.7398  116.7080    3.7395  116.7508    3.5669  116.9483    3.9147  116.9482    3.9150   -0.0000   -0.0000
  2.300  117.9694    3.6327  117.8996    3.8290  117.9327    3.8287  117.9774    3.6537  118.1785    4.0084  118.1785    4.0087   -0.0000   -0.0000
  2.310  119.2279    3.7215  119.1566    3.9217  119.1903    3.9214  119.2370    3.7438  119.4417    4.1058  119.4418    4.1060   -0.0000   -0.0000
  2.320  120.5208    3.8138  120.4478    4.0179  120.4821    4.0178  120.5309    3.8374  120.7394    4.2071  120.7397    4.2071   -0.0000   -0.0000
  2.330  121.8492    3.9097  121.7746    4.1180  121.8095    4.1179  121.8606    3.9349  122.0730    4.3123  122.0733    4.3123   -0.0000   -0.0000
  2.340  123.2148    4.0096  123.1384    4.2221  123.1739    4.2221  123.2273    4.0363  123.4438    4.4218  123.4443    4.4217   -0.0000   -0.0000
  2.350  124.6191    4.1136  124.5409    4.3305  124.5770    4.3306  124.6328    4.1419  124.8535    4.5358  124.8541    4.5356   -0.0000   -0.0000
  2.360  126.0636    4.2219  125.9835    4.4434  126.0203    4.4435  126.0787    4.2519  126.3037    4.6546  126.3044    4.6542   -0.0000   -0.0000
  2.370  127.5502    4.3347  127.4681    4.5610  127.5056    4.5612  127.5667    4.3666  127.7961    4.7783  127.7971    4.7778   -0.0000   -0.0000
  2.380  129.0806    4.4525  128.9965    4.6836  129.0347    4.6839  129.0987    4.4862  129.3327    4.9073  129.3338    4.9067   -0.0000   -0.0000
  2.390  130.6569    4.5753  130.5707    4.8115  130.6096    4.8119  130.6765    4.6111  130.9153    5.0420  130.9166    5.0412   -0.0000   -0.0000
  2.400  132.2811    4.7036  132.1926    4.9451  132.2323    4.9456  132.3023    4.7415  132.5461    5.1825  132.5476    5.1817   -0.0000   -0.0000
  2.410  133.9553    4.8376  133.8645    5.0846  133.9049    5.0852  133.9783    4.8778  134.2272    5.3294  134.2289    5.3284   -0.0000   -0.0000
  2.420  135.6820    4.9777  135.5887    5.2304  135.6300    5.2312  135.7068    5.0203  135.9610    5.4830  135.9629    5.4818   -0.0000   -0.0000
  2.430  137.4635    5.1244  137.3676    5.3830  137.4098    5.3839  137.4903    5.1695  137.7500    5.6436  137.7521    5.6423   -0.0000   -0.0000
  2.440  139.3025    5.2779  139.2039    5.5427  139.2470    5.5437  139.3314    5.3257  139.5968    5.8118  139.5992    5.8103   -0.0000   -0.0000
  2.450  141.2018    5.4388  141.1004    5.7100  141.1445    5.7112  141.2330    5.4894  141.5043    5.9881  141.5069    5.9864   -0.0000   -0.0000
  2.460  143.1645    5.6075  143.0601    5.8854  143.1051    5.8867  143.1980    5.6612  143.4754    6.1729  143.4784    6.1710   -0.0000   -0.0000
  2.470  145.1936    5.7846  145.0862    6.0695  145.1322    6.0709  145.2296    5.8415  145.5135    6.3668  145.5167    6.3647   -0.0000   -0.0000
  2.480  147.2927    5.9706  147.1820    6.2627  147.2291    6.2644  147.3314    6.0309  147.6219    6.5705  147.6254    6.5682   -0.0000   -0.0000
  2.490  149.4653    6.1662  149.3511    6.4659  149.3994    6.4677  149.5068    6.2301  149.8042    6.7847  149.8081    6.7821   -0.0000   -0.0000
  2.500  151.7154    6.3719  151.5976    6.6796  151.6471    6.6816  151.7599    6.4397  152.0645    7.0100  152.0687    7.0072   -0.0000   -0.0000
  2.510  154.0472    6.5886  153.9256    6.9046  153.9763    6.9068  154.0949    6.6606  154.4070    7.2472  154.4116    7.2442   -0.0000   -0.0000
  2.520  156.4652    6.8171  156.3395    7.1417  156.3915    7.1442  156.5163    6.8935  156.8362    7.4974  156.8412    7.4940   -0.0000   -0.0000
  2.530  158.9742    7.0582  158.8443    7.3919  158.8976    7.3946  159.0289    7.1393  159.3570    7.7613  159.3624    7.7576   -0.0000   -0.0000
  2.540  161.5795    7.3128  161.4450    7.6561  161.4998    7.6591  161.6380    7.3990  161.9746    8.0400  161.9805    8.0361   -0.0000   -0.0000
  2.550  164.2866    7.5821  164.1474    7.9354  164.2037    7.9386  164.3493    7.6737  164.6948    8.3348  164.7012    8.3305   -0.0000   -0.0000
  2.560  167.1017    7.8672  166.9574    8.2310  167.0153    8.2345  167.1688    7.9645  167.5236    8.6468  167.5305    8.6422   -0.0000   -0.0000
  2.570  170.0313    8.1694  169.8816    8.5442  169.9412    8.5480  170.1031    8.2729  170.4676    8.9775  170.4751    8.9725   -0.0000   -0.0000
  2.580  173.0826    8.4900  172.9271    8.8764  172.9885    8.8806  173.1594    8.6002  173.5341    9.3283  173.5422    9.3229   -0.0000   -0.0000
  2.590  176.2632    8.8307  176.1016    9.2293  176.1649    9.2339  176.3454    8.9481  176.7307    9.7011  176.7395    9.6953   -0.0000   -0.0000
  2.600  179.5815    9.1931  179.4134    9.6046  179.4787    9.6097  179.6695    9.3182  180.0661   10.0976  180.0755   10.0914   -0.0000   -0.0000
  2.610  183.0467    9.5792  182.8716   10.0044  182.9391   10.0098  183.1409    9.7127  183.5492   10.5201  183.5594   10.5134   -0.0000   -0.0000
  2.620  186.6687    9.9911  186.4861   10.4307  186.5559   10.4366  186.7696   10.1336  187.1902   10.9707  187.2013   10.9635   -0.0000   -0.0000
  2.630  190.4584   10.4312  190.2678   10.8860  190.3401   10.8925  190.5664   10.5835  191.0001   11.4522  191.0121   11.4444   -0.0000   -0.0000
  2.640  194.4277   10.9022  194.2285   11.3731  194.3034   11.3802  194.5435   11.0650  194.9908   11.9674  195.0038   11.9591   -0.0000   -0.0000
  2.650  198.5897   11.4070  198.3813   11.8951  198.4589   11.9028  198.7138   11.5813  199.1755   12.5197  199.1895   12.5107   -0.0000   -0.0000
  2.660  202.9587   11.9490  202.7403   12.4554  202.8209   12.4637  203.0918   12.1359  203.5687   13.1126  203.5839   13.1029   -0.0000   -0.0000
  2.670  207.5505   12.5321  207.3214   13.0579  207.4052   13.0670  207.6934   12.7326  208.1863   13.7504  208.2028   13.7400   -0.0000   -0.0000
  2.680  212.3827   13.1605  212.1419   13.7069  212.2291   13.7169  212.5361   13.3758  213.0460   14.4377  213.0638   14.4266   -0.0000   -0.0000
  2.690  217.4746   13.8391  217.2211   14.4076  217.3120   14.4185  217.6395   14.0707  218.1672   15.1800  218.1866   15.1680   -0.0000   -0.0000
  2.700  222.8476   14.5735  222.5804   15.1656  222.6754   15.1775  223.0250   14.8229  223.5717   15.9833  223.5928   15.9704   -0.0000   -0.0000
  2.710  228.5258   15.3700  228.2436   15.9875  228.3429   16.0005  228.7167   15.6391  229.2836   16.8545  229.3065   16.8407   -0.0000   -0.0000
  2.720  234.5358   16.2360  234.2373   16.8807  234.3413   16.8949  234.7416   16.5267  235.3298   17.8018  235.3547   17.7869   -0.0000   -0.0000
  2.730  240.9077   17.1799  240.5912   17.8538  240.7002   17.8694  241.1296   17.4944  241.7404   18.8342  241.7676   18.8181   -0.0000   -0.0000
  2.740  247.6749   18.2114  247.3387   18.9168  247.4533   18.9340  247.9145   18.5524  248.5495   19.9625  248.5791   19.9452   -0.0000   -0.0000
  2.750  254.8756   19.3418  254.5176   20.0813  254.6383   20.1002  255.1345   19.7122  255.7952   21.1991  255.8276   21.1805   -0.0000   -0.0000
  2.760  262.5525   20.5845  262.1704   21.3608  262.2978   21.3817  262.8328   20.9876  263.5209   22.5585  263.5564   22.5384   -0.0000   -0.0000
  2.770  270.7546   21.9548  270.3457   22.7713  270.4805   22.7944  271.0583   22.3947  271.7756   24.0577  271.8146   24.0360   -0.0000   -0.0000
  2.780  279.5373   23.4713  279.0986   24.3313  279.2415   24.3570  279.8670   23.9523  280.6155   25.7169  280.6583   25.6934   -0.0000   -0.0000
  2.790  288.9646   25.1556  288.4924   26.0633  288.6444   26.0919  289.3230   25.6830  290.1048   27.5598  290.1520   27.5345   -0.0000   -0.0000
  2.800  299.1097   27.0337  298.6000   27.9936  298.7620   28.0256  299.4999   27.6137  300.3174   29.6151  300.3696   29.5877   -0.0000   -0.0000
  2.810  310.0577   29.1370  309.5054   30.1543  309.6787   30.1901  310.4833   29.7768  311.3388   31.9171  311.3967   31.8874   -0.0000   -0.0000
  2.820  321.9072   31.5034  321.3066   32.5839  321.4925   32.6242  322.3723   32.2114  323.2685   34.5074  323.3328   34.4751   -0.0000   -0.0000
  2.830  334.7737   34.1791  334.1180   35.3295  334.3181   35.3750  335.2830   34.9656  336.2226   37.4367  336.2943   37.4016   -0.0000   -0.0000
  2.840  348.7930   37.2210  348.0740   38.4490  348.2903   38.5008  349.3519   38.0981  350.3378   40.7675  350.4181   40.7294   -0.0000   -0.0000
  2.850  364.1263   40.6998  363.3340   42.0144  363.5686   42.0735  364.7409   41.6825  365.7758   44.5776  365.8661   44.5361   -0.0000   -0.0000
  2.860  380.9653   44.7042  380.0875   46.1158  380.3433   46.1837  381.6428   45.8104  382.7295   48.9643  382.8314   48.9191   -0.0000   -0.0000
  2.870  399.5407   49.3466  398.5627   50.8672  398.8429   50.9458  400.2893   50.5987  401.4301   54.0512  401.5459   54.0020   -0.0000   -0.0000
  2.880  420.1321   54.7711  419.0352   56.4150  419.3438   56.5065  420.9613   56.1968  422.1578   59.9968  422.2899   59.9432   -0.0000   -0.0000
  2.890  443.0808   61.1652  441.8419   62.9489  442.1836   63.0566  444.0014   62.7996  445.2540   67.0073  445.4058   66.9489   -0.0000   -0.0000
  2.900  468.8083   68.7758  467.3976   70.7191  467.7786   70.8469  469.8327   70.6635  471.1393   75.3544  471.3150   75.2908   -0.0000   -0.0000
  2.910  497.8396   77.9337  496.2188   80.0600  496.6467   80.2132  498.9815   80.1325  500.3363   85.4021  500.5413   85.3332   -0.0000   -0.0000
  2.920  530.8359   89.0898  528.9548   91.4266  529.4390   91.6128  532.1103   91.6758  533.5007   97.6467  533.7421   97.5724   -0.0000   -0.0000
  2.930  568.6396  102.8711  566.4311  105.4512  566.9840  105.6806  570.0615  105.9461  571.4638  112.7785  571.7510  112.6992   -0.0000   -0.0000
  2.940  612.3360  120.1693  609.7089  123.0309  610.3461  123.3181  613.9185  123.8720  615.2894  131.7784  615.6351  131.6953   -0.0000   -0.0000
  2.950  663.3390  142.2846  660.1666  145.4712  660.9087  145.8378  665.0878  146.8084  666.3500  156.0762  666.7719  155.9921   -0.0001   -0.0000
  2.960  723.5085  171.1687  719.6105  174.7268  720.4846  175.2053  725.4111  176.7892  726.4258  187.8148  726.9488  187.7355   -0.0016   -0.0000
  2.970  795.3032  209.8474  790.4163  213.8200  791.4580  214.4612  797.3039  216.9677  797.8180  230.3091  798.4781  230.2465   -0.0242   -0.0000
  2.980  881.9544  263.1900  875.6835  267.5971  876.9390  268.4833  883.8987  272.4140  883.4383  288.8704  884.2890  288.8484   -0.2624   -0.0001
  2.990  987.5669  339.3626  979.3028  344.1516  980.8282  345.4226  989.0708  351.6143  986.7152  372.3410  987.8371  372.4098   -2.1322   -0.0009
  3.000 1116.7625  452.6857 1105.5450  457.6031 1107.3951  459.5065 1116.8964  469.3861 1110.7757  496.0219 1112.2904  496.2901  -13.2107   -0.0057
  3.010 1272.4313  629.3618 1256.7432  633.6157 1258.9166  636.6085 1268.9239  652.5927 1255.0631  687.2131 1257.1433  687.9275  -63.4672   -0.0291
  3.020 1446.3177  918.4318 1423.9039  919.8020 1426.1303  924.7351 1433.5953  950.5110 1403.3168  994.4155 1406.1351  996.1580 -236.4023   -0.1159
  3.030 1584.1940 1406.2350 1552.6668 1398.8263 1553.6448 1407.0971 1549.5652 1445.7514 1485.1995 1492.7731 1488.5060 1496.8666 -665.5404   -0.3605
  3.040 1481.0122 2186.0942 1443.2831 2156.1470 1438.6545 2168.4162 1406.2002 2211.7543 1287.2838 2224.9430 1288.5431 2233.3458 *********   -0.8604
  3.050  683.4698 3041.8050  669.0220 2975.8033  652.4215 2984.5051  589.0155 3001.2066  463.7967 2905.5732  456.4963 2915.2368 *********   -1.5750
  3.060 -719.4189 3032.6980 -675.4345 2978.4283 -693.2143 2970.6777 -751.9302 2941.3390 -756.0472 2793.2855 -768.1613 2793.0023 *********   -2.2708
  3.070 ********* 2137.7266 ********* 2133.2673 ********* 2120.2462 ********* 2072.4436 ********* 1995.9288 ********* 1989.7142 *********   -2.7265
  3.080 ********* 1342.2270 ********* 1354.5586 ********* 1345.5670 ********* 1308.7963 ********* 1285.6317 ********* 1280.3787 -545.0977   -2.9268
  3.090 *********  863.9938 *********  874.6686 *********  869.2875 *********  845.8909 *********  842.2893 *********  838.8620 -194.4085   -2.9983
  3.100 *********  592.8190 *********  598.1109 *********  594.7164 *********  579.4928 *********  581.4809 *********  579.4164 -677.1708   -3.2471
  3.110 *********  432.7891 *********  434.6874 *********  431.8781 *********  420.1552 *********  423.9354 *********  422.8268 *********   -4.6026
  3.120 -964.0196  292.9957 -955.6295  302.2312 -953.2144  300.0122 -941.4289  293.2179 -928.7646  299.5629 -928.2395  298.6799 *********   -5.8437
  3.130 -836.4672  212.0470 -833.9451  220.1562 -831.9359  219.0649 -822.7296  216.3290 -814.6820  221.4758 -814.2622  220.7893 -413.9216   -5.9958
  3.140 -739.5902  164.8274 -739.0026  170.7011 -737.4321  169.9971 -730.3405  168.7155 -724.6889  172.7794 -724.3097  172.2164   -9.4511   -5.9993
  3.150 -662.8162  131.5397 -662.9500  135.8791 -661.6632  135.3691 -655.9950  134.8151 -651.8743  138.0748 -651.5255  137.6189   -0.0716   -5.9993
  3.160 -599.6855  106.8235 -600.1265  110.1148 -599.0371  109.7242 -594.3991  109.5971 -591.3307  112.2328 -591.0125  111.8631   -0.0002   -5.9993
  3.170 -546.6441   87.9610 -547.2202   90.5096 -546.2756   90.1990 -542.4210   90.3363 -540.1042   92.4772 -539.8153   92.1749   -0.0000   -5.9993
  3.180 -501.3838   73.2564 -502.0153   75.2613 -501.1803   75.0068 -497.9406   75.3105 -496.1753   77.0535 -495.9132   76.8041   -0.0000   -5.9993
  3.190 -462.2747   61.5825 -462.9222   63.1788 -462.1718   62.9648 -459.4262   63.3724 -458.0742   64.7922 -457.8360   64.5847   -0.0000   -5.9993
  3.200 -428.1128   52.1647 -428.7572   53.4475 -428.0725   53.2634 -425.7315   53.7336 -424.6948   54.8885 -424.4776   54.7147   -0.0000   -5.9993
  3.210 -397.9837   44.4572 -398.6158   45.4951 -397.9824   45.3336 -395.9781   45.8381 -395.1853   46.7744 -394.9868   46.6279   -0.0000   -5.9993
  3.220 -371.1775   38.0668 -371.7938   38.9109 -371.2003   38.7666 -369.4804   39.2859 -368.8785   40.0403 -368.6963   39.9164   -0.0000   -5.9993
  3.230 -347.1331   32.7054 -347.7334   33.3943 -347.1702   33.2632 -345.6937   33.7833 -345.2426   34.3855 -345.0749   34.2805   -0.0000   -5.9993
  3.240 -325.3994   28.1577 -325.9854   28.7212 -325.4444   28.6004 -324.1791   29.1109 -323.8480   29.5852 -323.6932   29.4963   -0.0000   -5.9993
  3.250 -305.6082   24.2609 -306.1827   24.7225 -305.6567   24.6096 -304.5771   25.1027 -304.3416   25.4690 -304.1984   25.3940   -0.0000   -5.9993
  3.260 -287.4534   20.8900 -288.0200   21.2684 -287.5024   21.1618 -286.5880   21.6310 -286.4288   21.9062 -286.2961   21.8432   -0.0000   -5.9993
  3.270 -270.6756   17.9483 -271.2389   18.2587 -270.7233   18.1570 -269.9578   18.5968 -269.8590   18.7953 -269.7361   18.7428   -0.0000   -5.9993
  3.280 -255.0506   15.3601 -255.6158   15.6152 -255.0956   15.5174 -254.4663   15.9228 -254.4143   16.0570 -254.3006   16.0139   -0.0000   -5.9993
  3.290 -240.3788   13.0667 -240.9521   13.2772 -240.4202   13.1827 -239.9170   13.5483 -239.9001   13.6298 -239.7954   13.5952   -0.0005   -5.9993
  3.300 -226.4767   11.0226 -227.0656   11.1980 -226.5141   11.1065 -226.1293   11.4266 -226.1367   11.4663 -226.0411   11.4392   -0.0498   -5.9993
  3.310 -213.1684    9.1944 -213.7822    9.3428 -213.2017    9.2545 -212.9296    9.5227 -212.9507    9.5320 -212.8649    9.5114   -2.3231   -6.0002
  3.320 -200.2766    7.5589 -200.9274    7.6881 -200.3062    7.6037 -200.1424    7.8123 -200.1663    7.8041 -200.0916    7.7887  -45.8078   -6.0170
  3.330 -187.6103    6.1020 -188.3146    6.2196 -187.6372    6.1407 -187.5787    6.2811 -187.5931    6.2727 -187.5321    6.2593 -382.1089   -6.1574
  3.340 -174.9371    4.8156 -175.7189    4.9288 -174.9629    4.8587 -175.0099    4.9224 -175.0039    4.9405 -174.9575    4.9215 *********   -6.6529
  3.350 -161.9139    3.7495 -162.8093    3.8601 -161.9420    3.8113 -162.1070    3.7830 -162.0824    3.8606 -162.0399    3.8283 *********   -7.3926
  3.360 -148.1972    3.1280 -149.2506    3.2311 -148.2364    3.2273 -148.5257    3.0627 -148.4752    3.2215 -148.4314    3.1900 *********   -7.8597
  3.370 -133.3820    3.1167 -134.6630    3.2068 -133.4478    3.2782 -133.8452    2.9315 -133.7372    3.2350 -133.7099    3.2046 -339.5592   -7.9845
  3.380 -116.6756    4.1165 -118.3047    4.1662 -116.7986    4.3771 -117.2826    3.7935 -117.0994    4.3719 -117.1029    4.3250  -38.7273   -7.9987
  3.390  -96.8938    7.1313  -99.0745    7.0491  -97.1395    7.5454  -97.6629    6.6448  -97.4278    7.7408  -97.4733    7.6413   -7.3119   -8.0014
  3.400  -72.2979   14.5213  -75.3710   14.0311  -72.8154   15.1595  -73.2610   13.8381  -73.1582   15.9277  -73.2423   15.6953  -51.8989   -8.0205
  3.410  -40.9676   32.2301  -45.4005   30.4955  -42.1088   33.1267  -42.2082   31.3116  -43.0886   35.2726  -43.1044   34.7321 -304.3642   -8.1324
  3.420   -5.6851   75.1044  -11.2819   69.8110   -8.2393   75.9250   -7.5131   73.7949  -12.6840   80.1523  -12.0493   79.1668 *********   -8.5292
  3.430    0.2368  164.8248   -1.5861  152.9739   -4.6144  163.3083   -2.5620  161.8196  -17.8064  163.0751  -15.6680  163.1415 *********   -9.3403
  3.440  -96.3323  242.5936  -86.4125  232.9717  -98.0663  235.5016  -96.8979  236.5187 -106.4159  220.7031 -105.9651  222.7075 *********  -10.2525
  3.450 -197.8972  198.6686 -188.3295  199.8256 -194.0146  194.6074 -195.0556  193.9153 -190.2342  181.9854 -190.8271  182.8375 *********  -10.8036
  3.460 -220.2083  133.5536 -215.9396  136.8926 -216.9706  132.8761 -216.9352  130.8685 -210.8271  126.1701 -211.2923  126.5710 -528.1079  -10.9977
  3.470 -213.1692   93.4778 -211.3888   95.9741 -211.2221   93.6712 -210.3395   91.7791 -205.7734   90.0255 -206.1753   90.2702 -272.8767  -11.0980
  3.480 -201.0382   70.4749 -200.1774   72.0243 -199.8401   70.7382 -198.6489   69.1155 -195.3384   68.4361 -195.7131   68.5889 -503.4398  -11.2830
  3.490 -189.4091   56.8063 -188.0323   57.7764 -188.5917   56.9267 -187.1285   55.4722 -184.5594   55.2017 -184.9863   55.2583 *********  -15.1080
  3.500 -179.9432   48.5190 -179.5071   49.3223 -179.2709   48.5097 -177.9235   46.9982 -175.8822   46.9581 -176.2493   46.9358 *********  -15.7219
  3.510 -173.1728   43.4228 -172.6458   43.9254 -172.4687   43.2705 -170.7710   41.4896 -168.9932   41.6280 -169.3627   41.4745 *********  -16.6634
  3.520 -170.3209   37.9719 -169.6144   38.5366 -169.3640   37.8845 -166.7206   36.1450 -165.1897   36.6129 -165.4219   36.2713 *********  -17.8591
  3.530 -165.8594   28.1418 -165.3639   28.9616 -164.9329   28.5008 -161.6298   27.9139 -160.6517   28.5872 -160.6131   28.2943 *********  -18.8396
  3.540 -156.6272   21.1922 -156.4388   21.9204 -156.0596   21.6869 -153.2310   22.0675 -152.6466   22.5711 -152.5628   22.4419 *********  -19.2963
  3.550 -148.1952   18.0573 -148.1370   18.6235 -147.8481   18.4828 -145.5963   19.1667 -145.1721   19.5126 -145.1188   19.4514 -347.7552  -19.4241
  3.560 -141.3396   16.2634 -141.3344   16.7048 -141.1065   16.6051 -139.2450   17.3475 -138.9071   17.5979 -138.8773   17.5614  -74.1041  -19.4513
  3.570 -135.5362   14.9496 -135.5555   15.2994 -135.3680   15.2230 -133.7656   15.9572 -133.4880   16.1465 -133.4721   16.1202  -15.0700  -19.4569
  3.580 -130.4263   13.8725 -130.4579   14.1535 -130.2988   14.0925 -128.8784   14.8020 -128.6480   14.9486 -128.6402   14.9275   -2.8425  -19.4579
  3.590 -125.8095   12.9487 -125.8477   13.1765 -125.7095   13.1267 -124.4245   13.8090 -124.2326   13.9239 -124.2298   13.9058   -0.4572  -19.4581
  3.600 -121.5678   12.1407 -121.6096   12.3265 -121.4875   12.2851 -120.3080   12.9416 -120.1480   13.0319 -120.1484   13.0158   -0.0613  -19.4581
  3.610 -117.6260   11.4265 -117.6698   11.5786 -117.5602   11.5436 -116.4659   12.1765 -116.3328   12.2475 -116.3351   12.2328   -0.0068  -19.4581
  3.620 -113.9319   10.7912 -113.9768   10.9158 -113.8774   10.8859 -112.8539   11.4975 -112.7435   11.5528 -112.7471   11.5392   -0.0006  -19.4581
  3.630 -110.4479   10.2234 -110.4934   10.3255 -110.4022   10.2997 -109.4387   10.8917 -109.3477   10.9344 -109.3522   10.9219   -0.0000  -19.4581
  3.640 -107.1449    9.7144 -107.1907    9.7977 -107.1064    9.7751 -106.1948   10.3493 -106.1202   10.3819 -106.1253   10.3702   -0.0000  -19.4581
  3.650 -104.0002    9.2568 -104.0462    9.3245 -103.9675    9.3046 -103.1013    9.8623 -103.0408    9.8868 -103.0463    9.8759   -0.0000  -19.4581
  3.660 -100.9950    8.8449 -101.0411    8.8995 -100.9673    8.8818 -100.1412    9.4241 -100.0927    9.4423 -100.0985    9.4321   -0.0001  -19.4581
  3.670  -98.1138    8.4738  -98.1602    8.5176  -98.0904    8.5015  -97.3001    9.0295  -97.2619    9.0430  -97.2680    9.0335   -0.0001  -19.4581
  3.680  -95.3435    8.1396  -95.3901    8.1743  -95.3237    8.1597  -94.5658    8.6740  -94.5363    8.6842  -94.5426    8.6753   -0.0003  -19.4581
  3.690  -92.6727    7.8391  -92.7196    7.8664  -92.6562    7.8529  -91.9275    8.3541  -91.9053    8.3623  -91.9119    8.3541   -0.0008  -19.4581
  3.700  -90.0913    7.5697  -90.1386    7.5908  -90.0778    7.5782  -89.3759    8.0669  -89.3598    8.0744  -89.3665    8.0667   -0.0017  -19.4581
  3.710  -87.5906    7.3292  -87.6384    7.3455  -87.5798    7.3335  -86.9024    7.8101  -86.8914    7.8180  -86.8983    7.8109   -0.0037  -19.4581
  3.720  -85.1625    7.1160  -85.2111    7.1286  -85.1543    7.1171  -84.4995    7.5819  -84.4927    7.5913  -84.4998    7.5848   -0.0080  -19.4581
  3.730  -82.7999    6.9290  -82.8493    6.9388  -82.7943    6.9277  -82.1603    7.3810  -82.1567    7.3930  -82.1640    7.3870   -0.0168  -19.4581
  3.740  -80.4962    6.7674  -80.5466    6.7754  -80.4930    6.7645  -79.8783    7.2064  -79.8773    7.2222  -79.8848    7.2167   -0.0343  -19.4581
  3.750  -78.2452    6.6308  -78.2968    6.6379  -78.2444    6.6271  -77.6478    7.0578  -77.6485    7.0784  -77.6562    7.0733   -0.0682  -19.4581
  3.760  -76.0411    6.5192  -76.0941    6.5263  -76.0428    6.5154  -75.4630    6.9349  -75.4648    6.9615  -75.4729    6.9569   -0.1323  -19.4582
  3.770  -73.8786    6.4331  -73.9332    6.4409  -73.8829    6.4299  -73.3189    6.8383  -73.3211    6.8719  -73.3295    6.8678   -0.2500  -19.4583
  3.780  -71.7526    6.3734  -71.8090    6.3827  -71.7596    6.3713  -71.2103    6.7686  -71.2125    6.8106  -71.2211    6.8068   -0.4607  -19.4584
  3.790  -69.6581    6.3414  -69.7166    6.3530  -69.6679    6.3412  -69.1326    6.7272  -69.1342    6.7788  -69.1432    6.7754   -0.8276  -19.4588
  3.800  -67.5905    6.3390  -67.6514    6.3538  -67.6034    6.3414  -67.0812    6.7160  -67.0816    6.7785  -67.0910    6.7755   -1.4493  -19.4593
  3.810  -65.5453    6.3688  -65.6089    6.3875  -65.5614    6.3744  -65.0517    6.7374  -65.0506    6.8123  -65.0604    6.8097   -2.4742  -19.4602
  3.820  -63.5181    6.4341  -63.5849    6.4576  -63.5380    6.4436  -63.0401    6.7948  -63.0370    6.8837  -63.0473    6.8813   -4.1178  -19.4617
  3.830  -61.5052    6.5390  -61.5755    6.5681  -61.5291    6.5531  -61.0424    6.8922  -61.0371    6.9967  -61.0479    6.9946   -6.6809  -19.4642
  3.840  -59.5027    6.6887  -59.5771    6.7243  -59.5311    6.7082  -59.0552    7.0347  -59.0474    7.1568  -59.0587    7.1549  -10.5668  -19.4680
  3.850  -57.5077    6.8896  -57.5867    6.9328  -57.5411    6.9152  -57.0755    7.2288  -57.0650    7.3705  -57.0769    7.3688  -16.2926  -19.4740
  3.860  -55.5177    7.1496  -55.6021    7.2012  -55.5568    7.1820  -55.1012    7.4822  -55.0880    7.6457  -55.1005    7.6441  -24.4890  -19.4830
  3.870  -53.5315    7.4782  -53.6220    7.5394  -53.5771    7.5183  -53.1310    7.8044  -53.1153    7.9923  -53.1285    7.9907  -35.8828  -19.4962
  3.880  -51.5493    7.8869  -51.6470    7.9587  -51.6024    7.9355  -51.1657    8.2067  -51.1478    8.4218  -51.1617    8.4202  -51.2547  -19.5151
  3.890  -49.5741    8.3893  -49.6800    8.4730  -49.6358    8.4472  -49.2081    8.7028  -49.1888    8.9481  -49.2035    8.9462  -71.3692  -19.5413
  3.900  -47.6119    9.0013  -47.7274    9.0980  -47.6835    9.0692  -47.2649    9.3083  -47.2452    9.5870  -47.2606    9.5849  -96.8762  -19.5769
  3.910  -45.6738    9.7408  -45.8006    9.8518  -45.7569    9.8195  -45.3472   10.0407  -45.3288   10.3565  -45.3451   10.3539 -128.1888  -19.6240
  3.920  -43.7777   10.6270  -43.9175   10.7536  -43.8742   10.7171  -43.4734   10.9191  -43.4586   11.2756  -43.4756   11.2723 -165.3519  -19.6848
  3.930  -41.9505   11.6788  -42.1056   11.8221  -42.0626   11.7808  -41.6706   11.9617  -41.6626   12.3627  -41.6803   12.3585 -207.9185  -19.7612
  3.940  -40.2304   12.9119  -40.4035   13.0730  -40.3606   13.0257  -39.9774   13.1834  -39.9803   13.6324  -39.9986   13.6270 -254.8593  -19.8548
  3.950  -38.6692   14.3333  -38.8630   14.5131  -38.8201   14.4584  -38.4454   14.5903  -38.4646   15.0903  -38.4833   15.0834 -304.5302  -19.9667
  3.960  -37.3315   15.9338  -37.5495   16.1330  -37.5060   16.0692  -37.1392   16.1724  -37.1810   16.7249  -37.1996   16.7165 -354.7168  -20.0971
  3.970  -36.2908   17.6788  -36.5368   17.8978  -36.4916   17.8226  -36.1316   17.8937  -36.2029   18.4987  -36.2211   18.4885 -402.7669  -20.2451
  3.980  -35.6188   19.4983  -35.8968   19.7369  -35.8479   19.6481  -35.4932   19.6833  -35.6005   20.3385  -35.6179   20.3266 -445.8057  -20.4089
  3.990  -35.3661   21.2834  -35.6806   21.5409  -35.6247   21.4360  -35.2728   21.4316  -35.4217   22.1324  -35.4376   22.1189 -481.0125  -20.5857
  4.000  -35.5390   22.8932  -35.8948   23.1682  -35.8271   23.0457  -35.4751   22.9982  -35.6681   23.7383  -35.6821   23.7237 -505.9244  -20.7716
  4.010  -36.0801   24.1797  -36.4819   24.4697  -36.3966   24.3297  -36.0410   24.2362  -36.2773   25.0089  -36.2891   24.9938 -518.7196  -20.9623
  4.020  -36.8660   25.0233  -37.3182   25.3250  -37.2091   25.1698  -36.8466   25.0276  -37.1214   25.8281  -37.1310   25.8130 -518.4384  -21.1528
  4.030  -37.7291   25.3666  -38.2351   25.6759  -38.0970   25.5102  -37.7246   25.3168  -38.0308   26.1435  -38.0383   26.1291 -505.1023  -21.3384
  4.040  -38.4965   25.2284  -39.0589   25.5410  -38.8883   25.3710  -38.5032   25.1234  -38.8329   25.9791  -38.8387   25.9656 -479.7126  -21.5147
  4.050  -39.0283   24.6911  -39.6484   25.0033  -39.4447   24.8357  -39.0441   24.5302  -39.3900   25.4214  -39.3945   25.4092 -444.1300  -21.6779
  4.060  -39.2382   23.8718  -39.9174   24.1806  -39.6817   24.0215  -39.2622   23.6534  -39.6193   24.5900  -39.6230   24.5792 -400.8599  -21.8252
  4.070  -39.0941   22.8911  -39.8338   23.1946  -39.5689   23.0484  -39.1263   22.6124  -39.4921   23.6065  -39.4951   23.5970 -352.7862  -21.9549
  4.080  -38.6041   21.8525  -39.4071   22.1493  -39.1159   22.0192  -38.6448   21.5092  -39.0195   22.5744  -39.0222   22.5660 -302.9112  -22.0662
  4.090  -37.7997   20.8340  -38.6703   21.1227  -38.3557   21.0103  -37.8492   20.4200  -38.2356   21.5710  -38.2383   21.5637 -254.1597  -22.1596
  4.100  -36.7211   19.8888  -37.6653   20.1667  -37.3299   20.0729  -36.7791   19.3960  -37.1830   20.6482  -37.1857   20.6418 -209.2996  -22.2365
  4.110  -35.4085   19.0497  -36.4338   19.3121  -36.0794   19.2371  -35.4734   18.4677  -35.9034   19.8372  -35.9063   19.8315 -171.0251  -22.2994
  4.120  -33.8964   18.3354  -35.0116   18.5741  -34.6393   18.5177  -33.9649   17.6514  -34.4331   19.1545  -34.4363   19.1493 -142.2779  -22.3516
  4.130  -32.2131   17.7556  -33.4264   17.9571  -33.0368   17.9191  -32.2782   16.9541  -32.8013   18.6066  -32.8049   18.6018 -127.0021  -22.3983
  4.140  -30.3803   17.3147  -31.6970   17.4584  -31.2903   17.4384  -30.4297   16.3778  -31.0295   18.1934  -31.0338   18.1886 -131.5714  -22.4467
  4.150  -28.4157   17.0131  -29.8325   17.0700  -29.4083   17.0677  -28.4281   15.9219  -29.1326   17.9094  -29.1377   17.9043 -166.4434  -22.5078
  4.160  -26.3344   16.8466  -27.8301   16.7804  -27.3876   16.7950  -26.2744   15.5859  -27.1178   17.7437  -27.1243   17.7374 -245.5172  -22.5981
  4.170  -24.1500   16.7995  -25.6709   16.5771  -25.2085   16.6075  -23.9629   15.3701  -24.9825   17.6764  -24.9904   17.6673 -379.6750  -22.7376
  4.180  -21.8648   16.8308  -23.3138   16.4537  -22.8284   16.4980  -21.4812   15.2770  -22.7023   17.6743  -22.7111   17.6595 -570.8222  -22.9474
  4.190  -19.4290   16.8663  -20.6923   16.4258  -20.1782   16.4816  -18.8095   15.3124  -20.2022   17.6963  -20.2081   17.6721 -834.9793  -23.2542
  4.200  -16.6756   16.8622  -17.7266   16.5533  -17.1736   16.6190  -15.9198   15.4865  -17.3197   17.7528  -17.3142   17.7187 *********  -23.7058
  4.210  -13.3880   16.9620  -14.3574   16.9487  -13.7501   17.0269  -12.7749   15.8165  -13.8756   18.0187  -13.8507   17.9822 *********  -24.3282
  4.220   -9.5396   17.4362  -10.5742   17.7502   -9.8948   17.8515   -9.3277   16.3282   -9.8594   18.7753   -9.8150   18.7477 *********  -25.0255
  4.230   -5.2436   18.4170   -6.4162   19.0887   -5.6495   19.2307   -5.5179   17.0578   -5.4024   20.2030   -5.3448   20.1925 *********  -25.6450
  4.240   -0.5266   19.9232   -1.9370   21.0464   -1.0689   21.2501   -1.2668   18.0568   -0.5972   22.3619   -0.5349   22.3705 *********  -26.1743
  4.250    4.6952   22.0085    2.8662   23.6954    3.8513   23.9874    3.5295   19.3999    4.5691   25.3206    4.6306   25.3459 *********  -26.7601
  4.260   10.5636   24.8198    8.0403   27.1717    9.1599   27.5879    9.0085   21.1982   10.1665   29.2455   10.2250   29.2851 *********  -27.4383
  4.270   17.2537   28.6240   13.6359   31.7124   14.9095   32.3035   15.3547   23.6202   16.2686   34.4423   16.3235   34.4951 *********  -27.9551
  4.280   24.9630   33.8592   19.6633   37.6864   21.1102   38.5275   22.8181   26.9282   22.9005   41.4026   22.9514   41.4688 -691.4335  -28.2092
  4.290   33.8839   41.2398   26.0257   45.6311   27.6573   46.8365   31.7408   31.5476   29.9494   50.8800   29.9956   50.9610 -352.7619  -28.3389
  4.300   44.1044   51.9465   32.3990   56.2849   34.1982   58.0300   42.5893   38.1987   36.9725   63.9945   37.0119   64.0933 -278.2144  -28.4411
  4.310   55.2955   67.9380   38.0222   70.5636   39.8938   73.1120   55.9746   48.1673   42.7698   82.3154   42.7982   82.4358 -316.4399  -28.5574
  4.320   65.8182   92.3027   41.4174   89.3615   43.0770   93.0777   72.5732   63.8887   44.4898  107.6611   44.4988  107.8075 -447.9875  -28.7220
  4.330   70.5613  128.8536   40.2708  113.0770   41.0302  118.3441   92.5430   90.2445   36.1212  140.6745   36.0959  140.8503 -673.7265  -28.9696
  4.340   58.0562  177.9741   31.8229  141.4211   30.3020  148.2418  112.6261  137.2011    8.1018  175.8617    8.0152  176.0644 -996.8149  -29.3360
  4.350   14.8263  227.4704   11.6159  174.9174    5.8237  181.7909  113.7130  221.2506  -43.2871  194.6119  -43.4829  194.8091 *********  -29.8583
  4.360  -62.1282  253.7539  -35.8800  208.4683  -46.1145  210.8767   32.6628  331.6856  -97.4609  179.5419  -97.7740  179.6120 *********  -30.5160
  4.370 -150.5777  221.0172 -111.6702  199.1567 -120.0381  194.5044 -142.9512  333.3756 -129.1924  143.4488 -129.4413  143.3247 *********  -31.1727
  4.380 -185.5673  147.6965 -151.3178  144.4700 -154.2743  138.4072 -228.6247  214.1642 -138.7690  107.9376 -138.8661  107.7874 *********  -31.7154
  4.390 -178.2220   93.5519 -152.8412   98.8741 -153.0454   94.4704 -221.8243  122.2965 -136.7483   80.7365 -136.7772   80.6373 *********  -32.1856
  4.400 -161.4601   62.2283 -143.4039   70.4175 -142.7509   67.5532 -195.2731   73.3990 -130.2873   61.3731 -130.2986   61.3149 *********  -32.7048
  4.410 -145.5662   43.9031 -132.6913   52.5354 -131.8749   50.6733 -170.8212   47.4911 -122.6807   47.7250 -122.6903   47.6912 *********  -33.3557
  4.420 -132.2516   32.5568 -122.9174   40.7132 -122.1531   39.4709 -151.3466   32.8291 -115.2381   37.9855 -115.2499   37.9658 *********  -33.9634
  4.430 -121.3362   25.1324 -114.4267   32.5249 -113.7683   31.6704 -136.1127   23.9427 -108.4118   30.8966 -108.4263   30.8855 -878.6571  -34.2863
  4.440 -112.3489   20.0421 -107.1252   26.6350 -106.5745   26.0298 -124.0596   18.2311 -102.3058   25.6255 -102.3227   25.6199 -296.5955  -34.3953
  4.450 -104.8622   16.4148 -100.8336   22.2661 -100.3776   21.8258 -114.3473   14.3780  -96.8906   21.6240  -96.9093   21.6221 -100.5624  -34.4323
  4.460  -98.5421   13.7459  -95.3781   18.9413  -95.0011   18.6133 -106.3723   11.6732  -92.0924   18.5274  -92.1126   18.5282  -41.9336  -34.4477
  4.470  -93.1370   11.7288  -90.6109   16.3557  -90.2985   16.1061  -99.7086    9.7106  -87.8290   16.0885  -87.8505   16.0914  -17.8018  -34.4543
  4.480  -88.4582   10.1691  -86.4115   14.3072  -86.1517   14.1135  -94.0530    8.2466  -84.0236   14.1371  -84.0460   14.1416   -6.9596  -34.4568
  4.490  -84.3635    8.9392  -82.6832   12.6576  -82.4661   12.5046  -89.1860    7.1285  -80.6088   12.5534  -80.6321   12.5592   -2.4400  -34.4577
  4.500  -80.7443    7.9528  -79.3485   11.3102  -79.1661   11.1874  -84.9463    6.2570  -77.5275   11.2514  -77.5515   11.2585   -0.7608  -34.4580
  4.510  -77.5168    7.1499  -76.3449   10.1957  -76.1910   10.0955  -81.2130    5.5659  -74.7315   10.1687  -74.7562   10.1768   -0.2104  -34.4581
  4.520  -74.6155    6.4878  -73.6220    9.2635  -73.4915    9.1805  -77.8939    5.0092  -72.1810    9.2589  -72.2063    9.2680   -0.0516  -34.4581
  4.530  -71.9884    5.9354  -71.1390    8.4758  -71.0278    8.4061  -74.9179    4.5547  -69.8424    8.4872  -69.8683    8.4973   -0.0112  -34.4581
  4.540  -69.5940    5.4697  -68.8621    7.8042  -68.7669    7.7448  -72.2291    4.1793  -67.6878    7.8270  -67.7143    7.8380   -0.0022  -34.4581
  4.550  -67.3988    5.0736  -66.7636    7.2269  -66.6817    7.1757  -69.7830    3.8658  -65.6938    7.2579  -65.7209    7.2697   -0.0004  -34.4581
  4.560  -65.3754    4.7338  -64.8205    6.7270  -64.7497    6.6822  -67.5440    3.6014  -63.8406    6.7637  -63.8683    6.7764   -0.0001  -34.4581
  4.570  -63.5009    4.4402  -63.0135    6.2913  -62.9519    6.2516  -65.4830    3.3767  -62.1115    6.3319  -62.1398    6.3454   -0.0000  -34.4581
  4.580  -61.7568    4.1848  -61.3262    5.9091  -61.2724    5.8735  -63.5762    3.1842  -60.4923    5.9524  -60.5212    5.9667   -0.0000  -34.4581
  4.590  -60.1271    3.9612  -59.7449    5.5721  -59.6976    5.5397  -61.8038    3.0182  -58.9707    5.6171  -59.0002    5.6322   -0.0000  -34.4581
  4.600  -58.5985    3.7645  -58.2579    5.2734  -58.2159    5.2437  -60.1494    2.8741  -57.5362    5.3194  -57.5665    5.3353   -0.0000  -34.4581
  4.610  -57.1598    3.5906  -56.8549    5.0075  -56.8174    4.9798  -58.5990    2.7483  -56.1799    5.0539  -56.2109    5.0707   -0.0000  -34.4581
  4.620  -55.8013    3.4361  -55.5274    4.7697  -55.4936    4.7437  -57.1408    2.6381  -54.8939    4.8161  -54.9256    4.8338   -0.0000  -34.4581
  4.630  -54.5145    3.2984  -54.2677    4.5564  -54.2369    4.5317  -55.7648    2.5411  -53.6713    4.6025  -53.7037    4.6210   -0.0000  -34.4581
  4.640  -53.2923    3.1753  -53.0692    4.3643  -53.0409    4.3406  -54.4624    2.4554  -52.5061    4.4099  -52.5393    4.4292   -0.0000  -34.4581
  4.650  -52.1284    3.0648  -51.9263    4.1907  -51.8999    4.1679  -53.2260    2.3794  -51.3931    4.2357  -51.4271    4.2558   -0.0000  -34.4581
  4.660  -51.0173    2.9654  -50.8337    4.0336  -50.8089    4.0114  -52.0492    2.3119  -50.3275    4.0777  -50.3623    4.0988   -0.0000  -34.4581
  4.670  -49.9541    2.8758  -49.7870    3.8910  -49.7633    3.8693  -50.9262    2.2519  -49.3053    3.9341  -49.3410    3.9561   -0.0000  -34.4581
  4.680  -48.9345    2.7950  -48.7822    3.7612  -48.7594    3.7398  -49.8521    2.1985  -48.3227    3.8034  -48.3593    3.8263   -0.0000  -34.4581
  4.690  -47.9549    2.7219  -47.8158    3.6430  -47.7935    3.6218  -48.8225    2.1508  -47.3764    3.6841  -47.4140    3.7080   -0.0000  -34.4581
  4.700  -47.0117    2.6558  -46.8846    3.5351  -46.8625    3.5140  -47.8335    2.1084  -46.4636    3.5752  -46.5022    3.6000   -0.0000  -34.4581
  4.710  -46.1020    2.5960  -45.9858    3.4365  -45.9637    3.4155  -46.8816    2.0706  -45.5815    3.4755  -45.6211    3.5013   -0.0000  -34.4581
  4.720  -45.2231    2.5419  -45.1168    3.3464  -45.0944    3.3253  -45.9638    2.0371  -44.7277    3.3843  -44.7685    3.4112   -0.0000  -34.4581
  4.730  -44.3725    2.4931  -44.2752    3.2640  -44.2524    3.2428  -45.0771    2.0074  -43.9001    3.3008  -43.9420    3.3287   -0.0000  -34.4581
  4.740  -43.5480    2.4491  -43.4590    3.1887  -43.4355    3.1672  -44.2192    1.9813  -43.0967    3.2243  -43.1397    3.2533   -0.0000  -34.4581
  4.750  -42.7476    2.4094  -42.6662    3.1198  -42.6420    3.0980  -43.3877    1.9585  -42.3156    3.1543  -42.3599    3.1844   -0.0000  -34.4581
  4.760  -41.9695    2.3739  -41.8952    3.0568  -41.8699    3.0348  -42.5806    1.9387  -41.5553    3.0903  -41.6009    3.1215   -0.0000  -34.4581
  4.770  -41.2119    2.3422  -41.1442    2.9994  -41.1178    2.9770  -41.7961    1.9217  -40.8141    3.0317  -40.8610    3.0642   -0.0000  -34.4581
  4.780  -40.4734    2.3141  -40.4118    2.9471  -40.3841    2.9244  -41.0323    1.9074  -40.0907    2.9784  -40.1391    3.0120   -0.0000  -34.4581
  4.790  -39.7525    2.2894  -39.6967    2.8997  -39.6675    2.8765  -40.2877    1.8957  -39.3837    2.9298  -39.4336    2.9648   -0.0000  -34.4581
  4.800  -39.0479    2.2679  -38.9976    2.8568  -38.9668    2.8331  -39.5609    1.8864  -38.6921    2.8858  -38.7435    2.9221   -0.0000  -34.4581
  4.810  -38.3585    2.2495  -38.3133    2.8182  -38.2807    2.7940  -38.8505    1.8795  -38.0145    2.8461  -38.0676    2.8837   -0.0000  -34.4581
  4.820  -37.6830    2.2341  -37.6427    2.7836  -37.6082    2.7589  -38.1554    1.8748  -37.3501    2.8104  -37.4049    2.8495   -0.0000  -34.4581
  4.830  -37.0204    2.2215  -36.9848    2.7529  -36.9483    2.7277  -37.4742    1.8724  -36.6978    2.7786  -36.7544    2.8192   -0.0000  -34.4581
  4.840  -36.3697    2.2117  -36.3386    2.7260  -36.2999    2.7001  -36.8060    1.8721  -36.0566    2.7506  -36.1151    2.7927   -0.0000  -34.4581
  4.850  -35.7301    2.2046  -35.7032    2.7027  -35.6622    2.6761  -36.1497    1.8740  -35.4257    2.7261  -35.4862    2.7699   -0.0000  -34.4581
  4.860  -35.1005    2.2003  -35.0778    2.6828  -35.0343    2.6556  -35.5043    1.8780  -34.8043    2.7051  -34.8668    2.7506   -0.0000  -34.4581
  4.870  -34.4802    2.1985  -34.4616    2.6664  -34.4154    2.6385  -34.8690    1.8842  -34.1915    2.6876  -34.2563    2.7348   -0.0000  -34.4581
  4.880  -33.8683    2.1995  -33.8537    2.6533  -33.8046    2.6247  -34.2429    1.8925  -33.5866    2.6733  -33.6537    2.7224   -0.0000  -34.4581
  4.890  -33.2641    2.2031  -33.2534    2.6435  -33.2014    2.6141  -33.6251    1.9031  -32.9889    2.6624  -33.0584    2.7134   -0.0000  -34.4581
  4.900  -32.6669    2.2094  -32.6600    2.6370  -32.6048    2.6068  -33.0149    1.9158  -32.3976    2.6547  -32.4697    2.7077   -0.0000  -34.4581
  4.910  -32.0759    2.2184  -32.0728    2.6339  -32.0142    2.6028  -32.4114    1.9309  -31.8121    2.6503  -31.8869    2.7054   -0.0000  -34.4581
  4.920  -31.4905    2.2303  -31.4911    2.6340  -31.4290    2.6020  -31.8141    1.9484  -31.2317    2.6491  -31.3093    2.7064   -0.0000  -34.4581
  4.930  -30.9099    2.2450  -30.9143    2.6374  -30.8484    2.6045  -31.2221    1.9683  -30.6557    2.6512  -30.7363    2.7109   -0.0000  -34.4581
  4.940  -30.3336    2.2626  -30.3416    2.6443  -30.2718    2.6104  -30.6347    1.9908  -30.0835    2.6567  -30.1673    2.7189   -0.0000  -34.4581
  4.950  -29.7608    2.2834  -29.7726    2.6547  -29.6985    2.6198  -30.0513    2.0159  -29.5145    2.6656  -29.6016    2.7304   -0.0000  -34.4581
  4.960  -29.1909    2.3073  -29.2065    2.6686  -29.1280    2.6326  -29.4711    2.0438  -28.9479    2.6780  -29.0387    2.7455   -0.0000  -34.4581
  4.970  -28.6232    2.3346  -28.6427    2.6863  -28.5594    2.6492  -28.8935    2.0747  -28.3832    2.6941  -28.4778    2.7645   -0.0000  -34.4581
  4.980  -28.0572    2.3655  -28.0806    2.7078  -27.9923    2.6695  -28.3179    2.1088  -27.8198    2.7139  -27.9184    2.7874   -0.0001  -34.4581
  4.990  -27.4922    2.4001  -27.5195    2.7333  -27.4260    2.6938  -27.7435    2.1462  -27.2569    2.7377  -27.3599    2.8144   -0.0002  -34.4581
  5.000  -26.9275    2.4387  -26.9589    2.7632  -26.8597    2.7224  -27.1696    2.1871  -26.6940    2.7655  -26.8015    2.8457   -0.0004  -34.4581
  5.010  -26.3625    2.4816  -26.3980    2.7975  -26.2929    2.7554  -26.5956    2.2319  -26.1304    2.7978  -26.2428    2.8816   -0.0012  -34.4581
  5.020  -25.7966    2.5291  -25.8363    2.8366  -25.7248    2.7930  -26.0207    2.2808  -25.5654    2.8346  -25.6830    2.9223   -0.0032  -34.4581
  5.030  -25.2289    2.5815  -25.2730    2.8809  -25.1548    2.8358  -25.4443    2.3341  -24.9982    2.8764  -25.1215    2.9682   -0.0082  -34.4581
  5.040  -24.6590    2.6392  -24.7076    2.9307  -24.5822    2.8839  -24.8655    2.3922  -24.4283    2.9234  -24.5576    3.0197   -0.0202  -34.4581
  5.050  -24.0859    2.7028  -24.1392    2.9864  -24.0061    2.9379  -24.2838    2.4556  -23.8548    2.9761  -23.9905    3.0772   -0.0478  -34.4581
  5.060  -23.5091    2.7726  -23.5672    3.0485  -23.4259    2.9982  -23.6981    2.5247  -23.2770    3.0349  -23.4197    3.1411   -0.1093  -34.4582
  5.070  -22.9277    2.8494  -22.9908    3.1177  -22.8408    3.0655  -23.1079    2.6000  -22.6940    3.1003  -22.8442    3.2120   -0.2412  -34.4582
  5.080  -22.3411    2.9339  -22.4093    3.1946  -22.2500    3.1403  -22.5121    2.6822  -22.1051    3.1730  -22.2634    3.2907   -0.5133  -34.4584
  5.090  -21.7484    3.0268  -21.8220    3.2800  -21.6527    3.2234  -21.9100    2.7720  -21.5093    3.2537  -21.6764    3.3778   -1.0541  -34.4588
  5.100  -21.1488    3.1291  -21.2280    3.3747  -21.0479    3.3157  -21.3006    2.8702  -20.9059    3.3431  -21.0825    3.4742   -2.0891  -34.4596
  5.110  -20.5415    3.2418  -20.6265    3.4799  -20.4349    3.4183  -20.6831    2.9778  -20.2937    3.4421  -20.4808    3.5809   -3.9968  -34.4611
  5.120  -19.9259    3.3662  -20.0169    3.5967  -19.8127    3.5322  -20.0564    3.0959  -19.6720    3.5520  -19.8705    3.6991   -7.3831  -34.4638
  5.130  -19.3010    3.5037  -19.3983    3.7266  -19.1806    3.6590  -19.4196    3.2257  -19.0397    3.6739  -19.2506    3.8301  -13.1713  -34.4686
  5.140  -18.6662    3.6560  -18.7700    3.8712  -18.5377    3.8001  -18.7717    3.3687  -18.3958    3.8092  -18.6205    3.9756  -22.6980  -34.4770
  5.150  -18.0210    3.8252  -18.1315    4.0325  -17.8833    3.9574  -18.1119    3.5266  -17.7393    3.9598  -17.9792    4.1374  -37.7933  -34.4908
  5.160  -17.3649    4.0133  -17.4823    4.2127  -17.2168    4.1332  -17.4392    3.7015  -17.0694    4.1276  -17.3263    4.3177  -60.8158  -34.5132
  5.170  -16.6978    4.2232  -16.8222    4.4145  -16.5378    4.3299  -16.7529    3.8956  -16.3853    4.3148  -16.6611    4.5191  -94.6014  -34.5480
  5.180  -16.0200    4.4579  -16.1516    4.6410  -15.8463    4.5504  -16.0525    4.1117  -15.6863    4.5243  -15.9835    4.7445 -142.2890  -34.6003
  5.190  -15.3323    4.7206  -15.4712    4.8957  -15.1429    4.7981  -15.3377    4.3528  -14.9723    4.7590  -15.2938    4.9975 -206.9940  -34.6763
  5.200  -14.6365    5.0154  -14.7827    5.1824  -14.4287    5.0765  -14.6090    4.6225  -14.2433    5.0225  -14.5928    5.2821 -291.3371  -34.7834
  5.210  -13.9356    5.3461  -14.0890    5.5054  -13.7060    5.3894  -13.8672    4.9245  -13.5003    5.3186  -13.8824    5.6026 -396.8743  -34.9292
  5.220  -13.2342    5.7166  -13.3948    5.8689  -12.9788    5.7405  -13.1145    5.2628  -12.7451    5.6513  -13.1659    5.9638 -523.5381  -35.1216
  5.230  -12.5389    6.1301  -12.7070    6.2766  -12.2525    6.1328  -12.3541    5.6411  -11.9808    6.0244  -12.4483    6.3707 -669.2598  -35.3676
  5.240  -11.8590    6.5879  -12.0349    6.7304  -11.5348    6.5675  -11.5909    6.0626  -11.2119    6.4411  -11.7371    6.8272 -830.0104  -35.6726
  5.250  -11.2061    7.0881  -11.3911    7.2293  -10.8353    7.0424  -10.8311    6.5284  -10.4442    6.9028  -11.0425    7.3359 *********  -36.0403
  5.260  -10.5936    7.6232  -10.7900    7.7666  -10.1640    7.5503  -10.0817    7.0373   -9.6841    7.4084  -10.3778    7.8961 *********  -36.4725
  5.270  -10.0345    8.1782  -10.2466    8.3279   -9.5291    8.0769   -9.3491    7.5839   -8.9371    7.9531   -9.7583    8.5020 *********  -36.9704
  5.280   -9.5370    8.7281   -9.7718    8.8888   -8.9312    8.6002   -8.6362    8.1595   -8.2046    8.5290   -9.2005    9.1409 *********  -37.5361
  5.290   -9.0990    9.2394   -9.3673    9.4153   -8.3571    9.0946   -7.9400    8.7544   -7.4818    9.1286   -8.7205    9.7913 *********  -38.1744
  5.300   -8.7014    9.6728   -9.0194    9.8661   -7.7750    9.5406   -7.2518    9.3631   -6.7576    9.7511   -8.3325   10.4191 *********  -38.8911
  5.310   -8.3023    9.9907   -8.6930   10.1981   -7.1385    9.9403   -6.5642    9.9880   -6.0248   10.4082   -8.0431   10.9678 *********  -39.6882
  5.320   -7.8295   10.1688   -8.3216   10.3743   -6.4073   10.3308   -5.8814   10.6318   -5.2967   11.1168   -7.8249   11.3466 *********  -40.5549
  5.330   -7.1796   10.2266   -7.7986   10.3943   -5.5835   10.7692   -5.2129   11.2763   -4.6102   11.8652   -7.5587   11.4576 *********  -41.4611
  5.340   -6.2647   10.2686   -7.0154   10.3430   -4.7159   11.2750   -4.5380   11.8832   -3.9770   12.5893   -7.0231   11.3129 *********  -42.3596
  5.350   -5.1054   10.4365   -5.9554   10.3645   -3.8274   11.7986   -3.7976   12.4367   -3.3325   13.2249   -6.0531   11.1142 *********  -43.1982
  5.360   -3.7967   10.7807   -4.6909   10.5433   -2.8589   12.2939   -2.9282   12.9609   -2.5718   13.7761   -4.6828   11.1026 *********  -43.9350
  5.370   -2.3790   11.2747   -3.2762   10.8887   -1.7217   12.7880   -1.8792   13.5078   -1.6133   14.3112   -3.0514   11.3953 *********  -44.5499
  5.380   -0.8329   11.9138   -1.7216   11.4047   -0.3631   13.3622   -0.6224   14.1509   -0.4216   14.9253   -1.2720   12.0078 *********  -45.0439
  5.390    0.8629   12.7335   -0.0265   12.1157    1.2228   14.1064    0.8408   14.9690    0.9989   15.7116    0.5955   12.9263 *********  -45.4312
  5.400    2.7103   13.7853    1.8033   13.0557    3.0148   15.0965    2.4880   16.0326    2.6192   16.7482    2.5254   14.1438 -814.6660  -45.7306
  5.410    4.6984   15.1212    3.7581   14.2616    4.9841   16.3940    4.2873   17.4014    4.4016   18.0988    4.5075   15.6701 -623.1919  -45.9596
  5.420    6.8119   16.7949    5.8279   15.7741    7.1036   18.0566    6.2054   19.1315    6.3068   19.8208    6.5358   17.5339 -472.7127  -46.1333
  5.430    9.0326   18.8683    8.0028   17.6436    9.3471   20.1496    8.2066   21.2837    8.2946   21.9748    8.5992   19.7829 -358.1077  -46.2649
  5.440   11.3355   21.4187   10.2686   19.9359   11.6832   22.7551   10.2475   23.9308   10.3171   24.6327   10.6746   22.4841 -276.6485  -46.3666
  5.450   13.6799   24.5451   12.5997   22.7371   14.0637   25.9785   12.2669   27.1617   12.3087   27.8815   12.7179   25.7237 -226.7856  -46.4499
  5.460   15.9955   28.3716   14.9489   26.1580   16.4082   29.9528   14.1715   31.0829   14.1714   31.8240   14.6527   29.6062 -207.1161  -46.5261
  5.470   18.1628   33.0481   17.2319   30.3367   18.5811   34.8384   15.8178   35.8137   15.7572   36.5731   16.3550   34.2509 -215.9397  -46.6054
  5.480   19.9845   38.7438   19.3036   35.4376   20.3589   40.8137   16.9882   41.4731   16.8457   42.2371   17.6317   39.7812 -251.0045  -46.6977
  5.490   21.1458   45.6240   20.9243   41.6406   21.3866   48.0470   17.3632   48.1506   17.1206   48.8898   18.1935   46.3015 -309.0578  -46.8112
  5.500   21.1685   53.7955   21.7132   49.1083   21.1294   56.6293   16.4971   55.8500   16.1519   56.5162   17.6271   53.8502 -385.1585  -46.9528
  5.510   19.3768   63.1966   21.0968   57.9096   18.8440   66.4455   13.8163   64.3954   13.4013   64.9302   15.3788   62.3143 -472.0436  -47.1262
  5.520   14.9299   73.4127   18.2866   67.8697   13.6373   76.9688    8.6805   73.2966    8.2810   73.6627   10.7891   71.2934 -560.0067  -47.3320
  5.530    7.0238   83.4529   12.3689   78.3371    4.7222   87.0350    0.5727   81.6173    0.3094   81.8530    3.2523   79.9360 -637.6731  -47.5664
  5.540   -4.6440   91.6661    2.6435   87.9627   -8.0521   94.8132  -10.5455   87.9784  -10.5977   88.2328   -7.4248   86.8781 -693.7369  -47.8213
  5.550  -19.2907   96.1194  -10.7619   94.7875  -23.6113   98.3125  -23.8464   90.9048  -23.7659   91.3701  -20.5601   90.5374 -719.2892  -48.0857
  5.560  -34.9010   95.5253  -26.3811   96.9648  -39.6437   96.4186  -37.6113   89.5251  -37.6263   90.2719  -34.4674   89.8560 -710.0065  -48.3466
  5.570  -48.9928   90.0733  -41.7178   93.8486  -53.5657   89.6627  -49.8576   84.1366  -50.1778   85.0282  -47.0645   84.9868 -667.3957  -48.5918
  5.580  -59.8021   81.3031  -54.4370   86.4371  -63.7603   79.8804  -59.2203   76.0530  -59.8828   76.8544  -56.8471   77.2110 -598.5784  -48.8118
  5.590  -66.8455   71.1614  -63.3947   76.6790  -69.9975   69.1240  -65.3496   66.8731  -66.2358   67.4143  -63.3694   68.1714 -514.6273  -49.0009
  5.600  -70.6125   61.1639  -68.6970   66.4152  -72.9692   58.8562  -68.6634   57.8428  -69.6112   58.0763  -67.0091   59.1751 -427.9946  -49.1582
  5.610  -71.9662   52.1435  -71.1195   56.8258  -73.6388   49.7997  -69.8813   49.6588  -70.7645   49.6234  -68.4795   50.9682 -349.8514  -49.2868
  5.620  -71.7302   44.3961  -71.5561   48.4410  -72.8541   42.1507  -69.6966   42.5787  -70.4443   42.3459  -68.4822   43.8423 -288.0819  -49.3927
  5.630  -70.5342   37.9124  -70.7488   41.3716  -71.2323   35.8325  -68.6480   36.6042  -69.2319   36.2452  -67.5692   37.8205 -246.3423  -49.4832
  5.640  -68.8079   32.5502  -69.2285   35.5219  -69.1791   30.6639  -67.1094   31.6205  -67.5268   31.1945  -66.1294   32.8016 -224.1854  -49.5656
  5.650  -66.8255   28.1309  -67.3463   30.7205  -66.9465   26.4472  -65.3241   27.4775  -65.5852   27.0306  -64.4214   28.6424 -217.9605  -49.6457
  5.660  -64.7546   24.4835  -65.3237   26.7846  -64.6851   23.0031  -63.4432   24.0283  -63.5649   23.5963  -62.6110   25.1971 -222.0956  -49.7273
  5.670  -62.6932   21.4605  -63.2955   23.5458  -62.4833   20.1805  -61.5563   21.1437  -61.5600   20.7546  -60.8014   22.3321 -230.4216  -49.8120
  5.680  -60.6966   18.9404  -61.3376   20.8574  -60.3910   17.8547  -59.7142   18.7171  -59.6255   18.3912  -59.0528   19.9302 -237.3118  -49.8992
  5.690  -58.7934   16.8257  -59.4849   18.5972  -58.4334   15.9227  -57.9431   16.6629  -57.7904   16.4119  -57.3937   17.8920 -238.5139  -49.9868
  5.700  -56.9963   15.0390  -57.7449   16.6690  -56.6179   14.2998  -56.2557   14.9142  -56.0673   14.7395  -55.8300   16.1381 -231.6174  -50.0720
  5.710  -55.3084   13.5190  -56.1093   15.0031  -54.9389   12.9185  -54.6571   13.4182  -54.4568   13.3126  -54.3546   14.6104 -216.1415  -50.1514
  5.720  -53.7277   12.2171  -54.5661   13.5524  -53.3841   11.7282  -53.1487   12.1327  -52.9530   12.0834  -52.9568   13.2696 -193.2784  -50.2224
  5.730  -52.2492   11.0949  -53.1058   12.2844  -51.9389   10.6923  -51.7295   11.0231  -51.5474   11.0161  -51.6286   12.0889 -165.3754  -50.2832
  5.740  -50.8665   10.1218  -51.7229   11.1747  -50.5906    9.7847  -50.3965   10.0605  -50.2312   10.0833  -50.3651   11.0482 -135.2922  -50.3329
  5.750  -49.5727    9.2731  -50.4141   10.2028  -49.3286    8.9857  -49.1452    9.2211  -48.9967    9.2641  -49.1642   10.1306 -105.7837  -50.3718
  5.760  -48.3609    8.5289  -49.1771    9.3501  -48.1447    8.2798  -47.9707    8.4852  -47.8370    8.5414  -48.0242    9.3205  -79.0349  -50.4008
  5.770  -47.2245    7.8731  -48.0091    8.6003  -47.0320    7.6541  -46.8672    7.8366  -46.7461    7.9015  -46.9434    8.6040  -56.4189  -50.4216
  5.780  -46.1572    7.2925  -46.9069    7.9388  -45.9846    7.0976  -45.8294    7.2621  -45.7185    7.3325  -45.9195    7.9684  -38.4777  -50.4357
  5.790  -45.1532    6.7761  -45.8667    7.3531  -44.9974    6.6013  -44.8520    6.7510  -44.7492    6.8249  -44.9498    7.4029  -25.0701  -50.4449
  5.800  -44.2073    6.3149  -44.8848    6.8326  -44.0655    6.1570  -43.9301    6.2942  -43.8338    6.3704  -44.0312    6.8979  -15.6048  -50.4506
  5.810  -43.3146    5.9014  -43.9570    6.3681  -43.1846    5.7581  -43.0590    5.8843  -42.9679    5.9620  -43.1605    6.4454   -9.2792  -50.4541
  5.820  -42.4707    5.5292  -43.0795    5.9521  -42.3508    5.3988  -42.2348    5.5151  -42.1478    5.5937  -42.3346    6.0385   -5.2712  -50.4560
  5.830  -41.6716    5.1931  -42.2485    5.5781  -41.5605    5.0740  -41.4536    5.1814  -41.3699    5.2606  -41.5504    5.6713   -2.8606  -50.4570
  5.840  -40.9137    4.8885  -41.4607    5.2407  -40.8102    4.7796  -40.7120    4.8788  -40.6309    4.9584  -40.8049    5.3389   -1.4830  -50.4576
  5.850  -40.1938    4.6116  -40.7127    4.9351  -40.0969    4.5119  -40.0069    4.6035  -39.9280    4.6834  -40.0954    5.0369   -0.7345  -50.4579
  5.860  -39.5088    4.3593  -40.0015    4.6576  -39.4178    4.2679  -39.3355    4.3523  -39.2584    4.4324  -39.4194    4.7619   -0.3475  -50.4580
  5.870  -38.8562    4.1285  -39.3245    4.4048  -38.7705    4.0447  -38.6954    4.1224  -38.6198    4.2027  -38.7743    4.5106   -0.1571  -50.4580
  5.880  -38.2336    3.9170  -38.6790    4.1738  -38.1525    3.8402  -38.0841    3.9116  -38.0097    3.9919  -38.1582    4.2804   -0.0678  -50.4581
  5.890  -37.6386    3.7226  -38.0627    3.9622  -37.5619    3.6522  -37.4995    3.7177  -37.4263    3.7981  -37.5689    4.0690   -0.0280  -50.4581
  5.900  -37.0694    3.5436  -37.4737    3.7678  -36.9965    3.4791  -36.9399    3.5390  -36.8677    3.6195  -37.0047    3.8743   -0.0110  -50.4581
  5.910  -36.5241    3.3783  -36.9099    3.5887  -36.4548    3.3192  -36.4035    3.3739  -36.3321    3.4544  -36.4637    3.6946   -0.0041  -50.4581
  5.920  -36.0012    3.2254  -36.3697    3.4235  -35.9351    3.1713  -35.8886    3.2211  -35.8180    3.3016  -35.9446    3.5285   -0.0015  -50.4581
  5.930  -35.4990    3.0836  -35.8514    3.2706  -35.4359    3.0342  -35.3939    3.0793  -35.3240    3.1598  -35.4457    3.3745   -0.0005  -50.4581
  5.940  -35.0162    2.9519  -35.3535    3.1289  -34.9559    2.9068  -34.9181    2.9476  -34.8488    3.0280  -34.9660    3.2314   -0.0002  -50.4581
  5.950  -34.5516    2.8293  -34.8748    2.9972  -34.4939    2.7882  -34.4599    2.8249  -34.3913    2.9052  -34.5040    3.0983   -0.0001  -50.4581
  5.960  -34.1040    2.7150  -34.4140    2.8747  -34.0487    2.6777  -34.0183    2.7104  -33.9502    2.7907  -34.0588    2.9743   -0.0000  -50.4581
  5.970  -33.6724    2.6083  -33.9699    2.7604  -33.6193    2.5744  -33.5922    2.6035  -33.5247    2.6837  -33.6293    2.8584   -0.0000  -50.4581
  5.980  -33.2558    2.5084  -33.5417    2.6537  -33.2048    2.4778  -33.1807    2.5035  -33.1137    2.5835  -33.2146    2.7500   -0.0000  -50.4581
  5.990  -32.8533    2.4149  -33.1282    2.5539  -32.8042    2.3873  -32.7830    2.4097  -32.7165    2.4896  -32.8139    2.6485   -0.0000  -50.4581
  6.000  -32.4640    2.3271  -32.7287    2.4604  -32.4169    2.3024  -32.3982    2.3217  -32.3323    2.4015  -32.4262    2.5532   -0.0000  -50.4581
  6.010  -32.0874    2.2446  -32.3423    2.3726  -32.0419    2.2226  -32.0257    2.2390  -31.9602    2.3186  -32.0510    2.4637   -0.0000  -50.4581
  6.020  -31.7225    2.1670  -31.9683    2.2900  -31.6787    2.1474  -31.6647    2.1611  -31.5997    2.2405  -31.6875    2.3795   -0.0000  -50.4581
  6.030  -31.3688    2.0938  -31.6060    2.2124  -31.3266    2.0766  -31.3147    2.0877  -31.2502    2.1670  -31.3350    2.3001   -0.0000  -50.4581
  6.040  -31.0258    2.0248  -31.2547    2.1392  -30.9850    2.0098  -30.9750    2.0185  -30.9110    2.0975  -30.9930    2.2252   -0.0000  -50.4581
  6.050  -30.6927    1.9597  -30.9140    2.0701  -30.6534    1.9467  -30.6451    1.9530  -30.5816    2.0319  -30.6610    2.1545   -0.0000  -50.4581
  6.060  -30.3692    1.8980  -30.5832    2.0049  -30.3312    1.8870  -30.3246    1.8912  -30.2615    1.9698  -30.3384    2.0876   -0.0000  -50.4581
  6.070  -30.0548    1.8397  -30.2617    1.9431  -30.0180    1.8304  -30.0129    1.8326  -29.9503    1.9109  -30.0248    2.0242   -0.0000  -50.4581
  6.080  -29.7489    1.7844  -29.9493    1.8847  -29.7133    1.7768  -29.7096    1.7770  -29.6475    1.8551  -29.7197    1.9642   -0.0000  -50.4581
  6.090  -29.4512    1.7319  -29.6453    1.8292  -29.4167    1.7259  -29.4144    1.7243  -29.3527    1.8022  -29.4227    1.9072   -0.0000  -50.4581
  6.100  -29.1612    1.6821  -29.3495    1.7766  -29.1279    1.6776  -29.1268    1.6742  -29.0655    1.7518  -29.1335    1.8531   -0.0000  -50.4581
  6.110  -28.8787    1.6347  -29.0613    1.7266  -28.8464    1.6316  -28.8464    1.6266  -28.7857    1.7039  -28.8516    1.8016   -0.0000  -50.4581
  6.120  -28.6033    1.5896  -28.7805    1.6791  -28.5720    1.5878  -28.5731    1.5813  -28.5127    1.6584  -28.5767    1.7526   -0.0000  -50.4581
  6.130  -28.3346    1.5466  -28.5067    1.6338  -28.3043    1.5461  -28.3063    1.5382  -28.2464    1.6149  -28.3086    1.7060   -0.0000  -50.4581
  6.140  -28.0724    1.5057  -28.2396    1.5907  -28.0430    1.5064  -28.0459    1.4970  -27.9865    1.5735  -28.0469    1.6615   -0.0000  -50.4581
  6.150  -27.8164    1.4666  -27.9789    1.5495  -27.7878    1.4684  -27.7916    1.4578  -27.7326    1.5339  -27.7914    1.6190   -0.0000  -50.4581
  6.160  -27.5663    1.4293  -27.7244    1.5103  -27.5385    1.4321  -27.5431    1.4203  -27.4846    1.4961  -27.5417    1.5784   -0.0000  -50.4581
  6.170  -27.3218    1.3936  -27.4757    1.4728  -27.2949    1.3974  -27.3002    1.3844  -27.2421    1.4599  -27.2977    1.5397   -0.0000  -50.4581
  6.180  -27.0828    1.3595  -27.2326    1.4369  -27.0566    1.3643  -27.0627    1.3502  -27.0050    1.4253  -27.0591    1.5026   -0.0000  -50.4581
  6.190  -26.8490    1.3269  -26.9949    1.4026  -26.8235    1.3325  -26.8303    1.3174  -26.7730    1.3922  -26.8257    1.4670   -0.0000  -50.4581
  6.200  -26.6202    1.2956  -26.7624    1.3697  -26.5954    1.3020  -26.6028    1.2859  -26.5459    1.3604  -26.5972    1.4330   -0.0000  -50.4581
  6.210  -26.3962    1.2656  -26.5348    1.3382  -26.3721    1.2728  -26.3800    1.2558  -26.3236    1.3300  -26.3736    1.4004   -0.0000  -50.4581
  6.220  -26.1769    1.2368  -26.3121    1.3080  -26.1534    1.2448  -26.1618    1.2269  -26.1058    1.3007  -26.1545    1.3691   -0.0000  -50.4581
  6.230  -25.9619    1.2092  -26.0939    1.2790  -25.9391    1.2179  -25.9480    1.1991  -25.8925    1.2726  -25.9399    1.3390   -0.0000  -50.4581
  6.240  -25.7513    1.1827  -25.8801    1.2512  -25.7291    1.1920  -25.7385    1.1725  -25.6833    1.2456  -25.7296    1.3101   -0.0000  -50.4581
  6.250  -25.5448    1.1572  -25.6706    1.2244  -25.5232    1.1672  -25.5330    1.1469  -25.4782    1.2197  -25.5234    1.2823   -0.0000  -50.4581
  6.260  -25.3423    1.1327  -25.4651    1.1987  -25.3212    1.1432  -25.3314    1.1223  -25.2770    1.1947  -25.3211    1.2556   -0.0000  -50.4581
  6.270  -25.1436    1.1091  -25.2637    1.1740  -25.1231    1.1202  -25.1336    1.0985  -25.0797    1.1706  -25.1227    1.2299   -0.0000  -50.4581
  6.280  -24.9486    1.0864  -25.0660    1.1501  -24.9286    1.0980  -24.9395    1.0757  -24.8859    1.1475  -24.9280    1.2051   -0.0000  -50.4581
  6.290  -24.7572    1.0645  -24.8720    1.1272  -24.7377    1.0766  -24.7489    1.0537  -24.6957    1.1251  -24.7368    1.1813   -0.0000  -50.4581
  6.300  -24.5692    1.0434  -24.6815    1.1050  -24.5502    1.0559  -24.5617    1.0325  -24.5089    1.1036  -24.5491    1.1583   -0.0000  -50.4581
  6.310  -24.3846    1.0230  -24.4945    1.0837  -24.3660    1.0360  -24.3778    1.0121  -24.3254    1.0828  -24.3647    1.1361   -0.0000  -50.4581
  6.320  -24.2032    1.0034  -24.3108    1.0631  -24.1851    1.0168  -24.1971    0.9924  -24.1451    1.0627  -24.1835    1.1146   -0.0000  -50.4581
  6.330  -24.0249    0.9844  -24.1303    1.0432  -24.0072    0.9982  -24.0195    0.9733  -23.9679    1.0433  -24.0054    1.0939   -0.0000  -50.4581
  6.340  -23.8497    0.9661  -23.9529    1.0240  -23.8324    0.9803  -23.8449    0.9549  -23.7937    1.0245  -23.8304    1.0739   -0.0000  -50.4581
  6.350  -23.6774    0.9483  -23.7785    1.0055  -23.6605    0.9629  -23.6732    0.9371  -23.6224    1.0064  -23.6582    1.0546   -0.0000  -50.4581
  6.360  -23.5079    0.9312  -23.6070    0.9875  -23.4914    0.9461  -23.5043    0.9200  -23.4538    0.9889  -23.4889    1.0359   -0.0000  -50.4581
  6.370  -23.3412    0.9146  -23.4384    0.9701  -23.3251    0.9298  -23.3381    0.9033  -23.2880    0.9719  -23.3224    1.0178   -0.0000  -50.4581
  6.380  -23.1771    0.8986  -23.2724    0.9533  -23.1614    0.9141  -23.1746    0.8872  -23.1249    0.9554  -23.1585    1.0002   -0.0000  -50.4581
  6.390  -23.0156    0.8831  -23.1092    0.9371  -23.0002    0.8989  -23.0136    0.8717  -22.9643    0.9395  -22.9972    0.9833   -0.0000  -50.4581
  6.400  -22.8567    0.8680  -22.9485    0.9213  -22.8416    0.8841  -22.8552    0.8566  -22.8062    0.9241  -22.8384    0.9668   -0.0000  -50.4581
  6.410  -22.7002    0.8535  -22.7903    0.9060  -22.6855    0.8697  -22.6991    0.8419  -22.6505    0.9091  -22.6821    0.9509   -0.0000  -50.4581
  6.420  -22.5460    0.8393  -22.6345    0.8912  -22.5316    0.8558  -22.5454    0.8278  -22.4971    0.8946  -22.5281    0.9354   -0.0000  -50.4581
  6.430  -22.3942    0.8256  -22.4811    0.8768  -22.3801    0.8424  -22.3940    0.8140  -22.3460    0.8805  -22.3764    0.9204   -0.0000  -50.4581
  6.440  -22.2446    0.8123  -22.3299    0.8629  -22.2308    0.8293  -22.2448    0.8007  -22.1972    0.8668  -22.2269    0.9059   -0.0000  -50.4581
  6.450  -22.0971    0.7994  -22.1810    0.8494  -22.0837    0.8165  -22.0977    0.7877  -22.0505    0.8535  -22.0797    0.8917   -0.0000  -50.4581
  6.460  -21.9518    0.7869  -22.0343    0.8362  -21.9387    0.8042  -21.9528    0.7752  -21.9059    0.8406  -21.9345    0.8780   -0.0000  -50.4581
  6.470  -21.8086    0.7747  -21.8896    0.8235  -21.7957    0.7922  -21.8099    0.7630  -21.7634    0.8281  -21.7914    0.8647   -0.0000  -50.4581
  6.480  -21.6674    0.7629  -21.7471    0.8110  -21.6548    0.7805  -21.6690    0.7511  -21.6228    0.8159  -21.6503    0.8517   -0.0000  -50.4581
  6.490  -21.5281    0.7514  -21.6065    0.7990  -21.5157    0.7691  -21.5301    0.7396  -21.4842    0.8040  -21.5112    0.8391   -0.0000  -50.4581
  6.500  -21.3908    0.7402  -21.4678    0.7873  -21.3786    0.7581  -21.3930    0.7284  -21.3475    0.7925  -21.3740    0.8268   -0.0000  -50.4581
  6.510  -21.2553    0.7293  -21.3311    0.7758  -21.2434    0.7473  -21.2578    0.7175  -21.2126    0.7812  -21.2386    0.8149   -0.0000  -50.4581
  6.520  -21.1216    0.7187  -21.1962    0.7647  -21.1099    0.7369  -21.1244    0.7069  -21.0795    0.7703  -21.1051    0.8033   -0.0000  -50.4581
  6.530  -20.9896    0.7084  -21.0631    0.7539  -20.9782    0.7267  -20.9928    0.6965  -20.9482    0.7596  -20.9733    0.7920   -0.0000  -50.4581
  6.540  -20.8594    0.6984  -20.9318    0.7434  -20.8483    0.7167  -20.8628    0.6865  -20.8185    0.7493  -20.8432    0.7810   -0.0000  -50.4581
  6.550  -20.7309    0.6886  -20.8022    0.7331  -20.7200    0.7071  -20.7346    0.6767  -20.6906    0.7392  -20.7148    0.7703   -0.0000  -50.4581
  6.560  -20.6041    0.6791  -20.6743    0.7232  -20.5933    0.6976  -20.6079    0.6672  -20.5643    0.7293  -20.5881    0.7598   -0.0000  -50.4581
  6.570  -20.4788    0.6698  -20.5480    0.7134  -20.4683    0.6884  -20.4829    0.6579  -20.4395    0.7197  -20.4629    0.7496   -0.0000  -50.4581
  6.580  -20.3551    0.6607  -20.4233    0.7039  -20.3448    0.6795  -20.3594    0.6488  -20.3164    0.7103  -20.3393    0.7397   -0.0000  -50.4581
  6.590  -20.2329    0.6519  -20.3001    0.6947  -20.2228    0.6707  -20.2374    0.6400  -20.1947    0.7012  -20.2173    0.7300   -0.0000  -50.4581
  6.600  -20.1123    0.6433  -20.1785    0.6856  -20.1023    0.6622  -20.1170    0.6314  -20.0745    0.6923  -20.0967    0.7205   -0.0000  -50.4581
  6.610  -19.9931    0.6349  -20.0583    0.6768  -19.9833    0.6538  -19.9980    0.6230  -19.9558    0.6835  -19.9776    0.7113   -0.0000  -50.4581
  6.620  -19.8753    0.6267  -19.9397    0.6682  -19.8657    0.6457  -19.8804    0.6148  -19.8385    0.6750  -19.8600    0.7023   -0.0000  -50.4581
  6.630  -19.7589    0.6187  -19.8224    0.6598  -19.7495    0.6377  -19.7642    0.6068  -19.7226    0.6667  -19.7437    0.6935   -0.0000  -50.4581
  6.640  -19.6439    0.6109  -19.7065    0.6516  -19.6347    0.6300  -19.6493    0.5990  -19.6080    0.6586  -19.6288    0.6849   -0.0000  -50.4581
  6.650  -19.5302    0.6033  -19.5920    0.6436  -19.5212    0.6224  -19.5358    0.5914  -19.4948    0.6507  -19.5152    0.6765   -0.0000  -50.4581
  6.660  -19.4179    0.5958  -19.4789    0.6358  -19.4090    0.6150  -19.4236    0.5839  -19.3829    0.6429  -19.4030    0.6683   -0.0000  -50.4581
  6.670  -19.3068    0.5886  -19.3670    0.6281  -19.2981    0.6077  -19.3127    0.5766  -19.2722    0.6354  -19.2920    0.6603   -0.0000  -50.4581
  6.680  -19.1970    0.5814  -19.2564    0.6206  -19.1884    0.6006  -19.2030    0.5695  -19.1628    0.6280  -19.1823    0.6525   -0.0000  -50.4581
  6.690  -19.0884    0.5745  -19.1471    0.6133  -19.0800    0.5937  -19.0945    0.5626  -19.0547    0.6207  -19.0738    0.6448   -0.0000  -50.4581
  6.700  -18.9810    0.5677  -19.0389    0.6061  -18.9728    0.5869  -18.9873    0.5558  -18.9477    0.6136  -18.9665    0.6373   -0.0000  -50.4581
  6.710  -18.8748    0.5610  -18.9320    0.5991  -18.8667    0.5802  -18.8812    0.5491  -18.8419    0.6067  -18.8604    0.6300   -0.0000  -50.4581
  6.720  -18.7697    0.5545  -18.8263    0.5923  -18.7618    0.5737  -18.7763    0.5426  -18.7372    0.5999  -18.7555    0.6228   -0.0000  -50.4581
  6.730  -18.6658    0.5481  -18.7217    0.5856  -18.6580    0.5674  -18.6725    0.5362  -18.6337    0.5932  -18.6517    0.6158   -0.0000  -50.4581
  6.740  -18.5630    0.5419  -18.6182    0.5790  -18.5554    0.5611  -18.5698    0.5300  -18.5312    0.5867  -18.5490    0.6089   -0.0000  -50.4581
  6.750  -18.4613    0.5358  -18.5159    0.5726  -18.4538    0.5550  -18.4682    0.5239  -18.4299    0.5804  -18.4474    0.6022   -0.0000  -50.4581
  6.760  -18.3607    0.5298  -18.4146    0.5663  -18.3533    0.5491  -18.3676    0.5179  -18.3296    0.5741  -18.3468    0.5956   -0.0000  -50.4581
  6.770  -18.2611    0.5240  -18.3144    0.5602  -18.2538    0.5432  -18.2681    0.5121  -18.2304    0.5680  -18.2473    0.5891   -0.0000  -50.4581
  6.780  -18.1625    0.5183  -18.2152    0.5541  -18.1554    0.5375  -18.1697    0.5064  -18.1321    0.5620  -18.1489    0.5828   -0.0000  -50.4581
  6.790  -18.0650    0.5126  -18.1171    0.5482  -18.0580    0.5318  -18.0722    0.5008  -18.0349    0.5561  -18.0514    0.5766   -0.0000  -50.4581
  6.800  -17.9684    0.5071  -18.0200    0.5424  -17.9615    0.5263  -17.9757    0.4953  -17.9387    0.5504  -17.9550    0.5705   -0.0000  -50.4581
  6.810  -17.8729    0.5017  -17.9238    0.5367  -17.8660    0.5209  -17.8802    0.4899  -17.8435    0.5447  -17.8595    0.5646   -0.0000  -50.4581
  6.820  -17.7782    0.4965  -17.8287    0.5312  -17.7715    0.5156  -17.7857    0.4846  -17.7491    0.5392  -17.7649    0.5587   -0.0000  -50.4581
  6.830  -17.6845    0.4913  -17.7345    0.5257  -17.6780    0.5104  -17.6921    0.4794  -17.6558    0.5338  -17.6713    0.5530   -0.0000  -50.4581
  6.840  -17.5918    0.4862  -17.6412    0.5203  -17.5853    0.5053  -17.5994    0.4744  -17.5633    0.5284  -17.5787    0.5474   -0.0000  -50.4581
  6.850  -17.4999    0.4812  -17.5488    0.5151  -17.4936    0.5003  -17.5076    0.4694  -17.4718    0.5232  -17.4869    0.5419   -0.0000  -50.4581
  6.860  -17.4090    0.4763  -17.4573    0.5099  -17.4027    0.4954  -17.4167    0.4645  -17.3811    0.5181  -17.3960    0.5365   -0.0000  -50.4581
  6.870  -17.3189    0.4715  -17.3668    0.5049  -17.3127    0.4905  -17.3267    0.4597  -17.2913    0.5131  -17.3060    0.5312   -0.0000  -50.4581
  6.880  -17.2296    0.4668  -17.2771    0.4999  -17.2236    0.4858  -17.2375    0.4550  -17.2023    0.5081  -17.2169    0.5260   -0.0000  -50.4581
  6.890  -17.1412    0.4622  -17.1882    0.4950  -17.1353    0.4812  -17.1492    0.4504  -17.1142    0.5033  -17.1286    0.5209   -0.0000  -50.4581
  6.900  -17.0537    0.4577  -17.1002    0.4902  -17.0478    0.4766  -17.0617    0.4459  -17.0270    0.4985  -17.0411    0.5158   -0.0000  -50.4581
  6.910  -16.9669    0.4532  -17.0130    0.4855  -16.9612    0.4721  -16.9750    0.4415  -16.9405    0.4938  -16.9545    0.5109   -0.0000  -50.4581
  6.920  -16.8810    0.4489  -16.9267    0.4809  -16.8753    0.4677  -16.8891    0.4371  -16.8548    0.4892  -16.8686    0.5061   -0.0000  -50.4581
  6.930  -16.7959    0.4446  -16.8411    0.4764  -16.7903    0.4634  -16.8040    0.4328  -16.7700    0.4847  -16.7836    0.5013   -0.0000  -50.4581
  6.940  -16.7115    0.4403  -16.7563    0.4719  -16.7060    0.4591  -16.7197    0.4286  -16.6859    0.4803  -16.6993    0.4967   -0.0000  -50.4581
  6.950  -16.6279    0.4362  -16.6723    0.4675  -16.6225    0.4549  -16.6361    0.4245  -16.6025    0.4759  -16.6158    0.4921   -0.0000  -50.4581
  6.960  -16.5450    0.4321  -16.5891    0.4632  -16.5397    0.4508  -16.5533    0.4204  -16.5199    0.4716  -16.5330    0.4876   -0.0000  -50.4581
  6.970  -16.4629    0.4281  -16.5066    0.4590  -16.4577    0.4468  -16.4712    0.4164  -16.4381    0.4674  -16.4510    0.4831   -0.0000  -50.4581
  6.980  -16.3816    0.4242  -16.4248    0.4549  -16.3764    0.4428  -16.3899    0.4125  -16.3569    0.4633  -16.3697    0.4788   -0.0000  -50.4581
  6.990  -16.3009    0.4204  -16.3438    0.4508  -16.2958    0.4389  -16.3093    0.4087  -16.2765    0.4592  -16.2891    0.4745   -0.0000  -50.4581
  7.000  -16.2209    0.4166  -16.2635    0.4468  -16.2159    0.4351  -16.2293    0.4049  -16.1968    0.4552  -16.2092    0.4703   -0.0000  -50.4581
  7.010  -16.1417    0.4128  -16.1839    0.4428  -16.1367    0.4313  -16.1501    0.4012  -16.1178    0.4513  -16.1300    0.4662   -0.0000  -50.4581
  7.020  -16.0631    0.4092  -16.1050    0.4389  -16.0582    0.4276  -16.0716    0.3975  -16.0394    0.4474  -16.0516    0.4621   -0.0000  -50.4581
  7.030  -15.9852    0.4056  -16.0267    0.4351  -15.9804    0.4239  -15.9937    0.3939  -15.9617    0.4436  -15.9737    0.4581   -0.0000  -50.4581
  7.040  -15.9080    0.4020  -15.9492    0.4313  -15.9032    0.4203  -15.9165    0.3904  -15.8847    0.4398  -15.8966    0.4542   -0.0000  -50.4581
  7.050  -15.8314    0.3985  -15.8723    0.4276  -15.8267    0.4168  -15.8399    0.3869  -15.8084    0.4361  -15.8201    0.4503   -0.0000  -50.4581
  7.060  -15.7554    0.3951  -15.7960    0.4240  -15.7509    0.4133  -15.7640    0.3834  -15.7327    0.4325  -15.7442    0.4465   -0.0000  -50.4581
  7.070  -15.6801    0.3917  -15.7204    0.4204  -15.6756    0.4099  -15.6887    0.3801  -15.6576    0.4289  -15.6690    0.4427   -0.0000  -50.4581
  7.080  -15.6055    0.3884  -15.6454    0.4169  -15.6010    0.4065  -15.6141    0.3768  -15.5831    0.4254  -15.5944    0.4390   -0.0000  -50.4581
  7.090  -15.5314    0.3851  -15.5711    0.4134  -15.5270    0.4032  -15.5400    0.3735  -15.5093    0.4220  -15.5204    0.4354   -0.0000  -50.4581
  7.100  -15.4579    0.3819  -15.4973    0.4100  -15.4536    0.3999  -15.4666    0.3703  -15.4360    0.4186  -15.4470    0.4318   -0.0000  -50.4581
  7.110  -15.3851    0.3787  -15.4242    0.4067  -15.3808    0.3967  -15.3938    0.3671  -15.3634    0.4152  -15.3743    0.4283   -0.0000  -50.4581
  7.120  -15.3128    0.3756  -15.3517    0.4033  -15.3086    0.3935  -15.3215    0.3640  -15.2913    0.4119  -15.3021    0.4248   -0.0000  -50.4581
  7.130  -15.2411    0.3725  -15.2797    0.4001  -15.2370    0.3904  -15.2499    0.3609  -15.2198    0.4086  -15.2305    0.4214   -0.0000  -50.4581
  7.140  -15.1700    0.3695  -15.2083    0.3969  -15.1660    0.3873  -15.1788    0.3579  -15.1489    0.4054  -15.1595    0.4181   -0.0000  -50.4581
  7.150  -15.0995    0.3665  -15.1376    0.3937  -15.0955    0.3843  -15.1082    0.3549  -15.0786    0.4023  -15.0890    0.4148   -0.0000  -50.4581
  7.160  -15.0295    0.3636  -15.0673    0.3906  -15.0255    0.3813  -15.0383    0.3520  -15.0088    0.3992  -15.0191    0.4115   -0.0000  -50.4581
  7.170  -14.9601    0.3607  -14.9976    0.3875  -14.9562    0.3783  -14.9689    0.3491  -14.9395    0.3961  -14.9497    0.4083   -0.0000  -50.4581
  7.180  -14.8912    0.3579  -14.9285    0.3845  -14.8873    0.3754  -14.9000    0.3463  -14.8708    0.3931  -14.8809    0.4051   -0.0000  -50.4581
  7.190  -14.8228    0.3551  -14.8599    0.3815  -14.8190    0.3726  -14.8316    0.3435  -14.8027    0.3901  -14.8126    0.4020   -0.0000  -50.4581
  7.200  -14.7550    0.3523  -14.7919    0.3786  -14.7513    0.3698  -14.7638    0.3407  -14.7350    0.3872  -14.7449    0.3989   -0.0000  -50.4581
  7.210  -14.6877    0.3496  -14.7244    0.3757  -14.6840    0.3670  -14.6965    0.3380  -14.6679    0.3843  -14.6777    0.3959   -0.0000  -50.4581
  7.220  -14.6209    0.3469  -14.6574    0.3728  -14.6173    0.3642  -14.6297    0.3353  -14.6013    0.3814  -14.6110    0.3929   -0.0000  -50.4581
  7.230  -14.5546    0.3443  -14.5909    0.3700  -14.5510    0.3615  -14.5635    0.3327  -14.5352    0.3786  -14.5447    0.3900   -0.0000  -50.4581
  7.240  -14.4888    0.3417  -14.5249    0.3672  -14.4853    0.3589  -14.4977    0.3301  -14.4696    0.3759  -14.4790    0.3871   -0.0000  -50.4581
  7.250  -14.4236    0.3391  -14.4594    0.3645  -14.4200    0.3563  -14.4324    0.3275  -14.4045    0.3731  -14.4138    0.3842   -0.0000  -50.4581
  7.260  -14.3588    0.3366  -14.3944    0.3618  -14.3553    0.3537  -14.3676    0.3250  -14.3399    0.3705  -14.3491    0.3814   -0.0000  -50.4581
  7.270  -14.2944    0.3341  -14.3299    0.3592  -14.2910    0.3511  -14.3033    0.3225  -14.2757    0.3678  -14.2849    0.3787   -0.0000  -50.4581
  7.280  -14.2306    0.3316  -14.2659    0.3565  -14.2272    0.3486  -14.2395    0.3200  -14.2120    0.3652  -14.2211    0.3759   -0.0000  -50.4581
  7.290  -14.1672    0.3292  -14.2023    0.3540  -14.1639    0.3461  -14.1761    0.3176  -14.1488    0.3626  -14.1578    0.3732   -0.0000  -50.4581
  7.300  -14.1043    0.3268  -14.1392    0.3514  -14.1010    0.3437  -14.1132    0.3152  -14.0861    0.3601  -14.0949    0.3706   -0.0000  -50.4581
  7.310  -14.0418    0.3244  -14.0766    0.3489  -14.0386    0.3412  -14.0507    0.3128  -14.0238    0.3576  -14.0326    0.3679   -0.0000  -50.4581
  7.320  -13.9798    0.3221  -14.0144    0.3464  -13.9766    0.3389  -13.9887    0.3105  -13.9619    0.3551  -13.9706    0.3653   -0.0000  -50.4581
  7.330  -13.9183    0.3198  -13.9527    0.3440  -13.9151    0.3365  -13.9272    0.3082  -13.9005    0.3526  -13.9091    0.3628   -0.0000  -50.4581
  7.340  -13.8572    0.3175  -13.8914    0.3415  -13.8540    0.3342  -13.8661    0.3059  -13.8396    0.3502  -13.8481    0.3603   -0.0000  -50.4581
  7.350  -13.7965    0.3153  -13.8306    0.3392  -13.7934    0.3319  -13.8054    0.3037  -13.7791    0.3478  -13.7875    0.3578   -0.0000  -50.4581
  7.360  -13.7362    0.3131  -13.7702    0.3368  -13.7332    0.3296  -13.7451    0.3015  -13.7190    0.3455  -13.7273    0.3553   -0.0000  -50.4581
  7.370  -13.6764    0.3109  -13.7102    0.3345  -13.6734    0.3274  -13.6853    0.2993  -13.6593    0.3432  -13.6675    0.3529   -0.0000  -50.4581
  7.380  -13.6170    0.3088  -13.6507    0.3322  -13.6140    0.3252  -13.6259    0.2972  -13.6000    0.3409  -13.6082    0.3505   -0.0000  -50.4581
  7.390  -13.5580    0.3067  -13.5915    0.3299  -13.5550    0.3230  -13.5669    0.2950  -13.5412    0.3386  -13.5493    0.3482   -0.0000  -50.4581
  7.400  -13.4994    0.3046  -13.5328    0.3277  -13.4965    0.3209  -13.5083    0.2930  -13.4827    0.3364  -13.4908    0.3459   -0.0000  -50.4581
  7.410  -13.4412    0.3025  -13.4745    0.3255  -13.4383    0.3187  -13.4501    0.2909  -13.4247    0.3342  -13.4326    0.3436   -0.0000  -50.4581
  7.420  -13.3834    0.3005  -13.4166    0.3233  -13.3806    0.3167  -13.3924    0.2888  -13.3671    0.3321  -13.3749    0.3413   -0.0000  -50.4581
  7.430  -13.3260    0.2985  -13.3591    0.3212  -13.3232    0.3146  -13.3350    0.2868  -13.3098    0.3299  -13.3176    0.3391   -0.0000  -50.4581
  7.440  -13.2690    0.2965  -13.3019    0.3191  -13.2662    0.3125  -13.2780    0.2848  -13.2530    0.3278  -13.2607    0.3369   -0.0000  -50.4581
  7.450  -13.2124    0.2946  -13.2452    0.3170  -13.2097    0.3105  -13.2213    0.2829  -13.1965    0.3257  -13.2041    0.3347   -0.0000  -50.4581
  7.460  -13.1561    0.2926  -13.1889    0.3149  -13.1535    0.3085  -13.1651    0.2809  -13.1404    0.3237  -13.1480    0.3325   -0.0000  -50.4581
  7.470  -13.1003    0.2907  -13.1329    0.3129  -13.0976    0.3066  -13.1092    0.2790  -13.0847    0.3216  -13.0922    0.3304   -0.0000  -50.4581
  7.480  -13.0448    0.2888  -13.0773    0.3108  -13.0422    0.3046  -13.0537    0.2771  -13.0293    0.3196  -13.0367    0.3283   -0.0000  -50.4581
  7.490  -12.9896    0.2870  -13.0221    0.3088  -12.9871    0.3027  -12.9986    0.2752  -12.9743    0.3176  -12.9817    0.3262   -0.0000  -50.4581
  7.500  -12.9349    0.2852  -12.9672    0.3069  -12.9323    0.3008  -12.9439    0.2734  -12.9197    0.3157  -12.9270    0.3242   -0.0000  -50.4581
  7.510  -12.8805    0.2833  -12.9127    0.3049  -12.8779    0.2990  -12.8895    0.2715  -12.8654    0.3137  -12.8727    0.3222   -0.0000  -50.4581
  7.520  -12.8264    0.2816  -12.8586    0.3030  -12.8239    0.2971  -12.8354    0.2697  -12.8115    0.3118  -12.8187    0.3202   -0.0000  -50.4581
  7.530  -12.7727    0.2798  -12.8048    0.3011  -12.7703    0.2953  -12.7817    0.2680  -12.7580    0.3099  -12.7651    0.3182   -0.0000  -50.4581
  7.540  -12.7193    0.2780  -12.7514    0.2992  -12.7169    0.2935  -12.7284    0.2662  -12.7048    0.3081  -12.7118    0.3163   -0.0000  -50.4581
  7.550  -12.6663    0.2763  -12.6983    0.2974  -12.6639    0.2917  -12.6753    0.2645  -12.6519    0.3062  -12.6588    0.3144   -0.0000  -50.4581
  7.560  -12.6136    0.2746  -12.6456    0.2956  -12.6113    0.2899  -12.6227    0.2627  -12.5993    0.3044  -12.6062    0.3125   -0.0000  -50.4581
  7.570  -12.5613    0.2729  -12.5932    0.2938  -12.5590    0.2882  -12.5703    0.2610  -12.5471    0.3026  -12.5540    0.3106   -0.0000  -50.4581
  7.580  -12.5093    0.2713  -12.5411    0.2920  -12.5070    0.2865  -12.5183    0.2593  -12.4953    0.3009  -12.5020    0.3088   -0.0000  -50.4581
  7.590  -12.4576    0.2696  -12.4894    0.2902  -12.4553    0.2848  -12.4666    0.2577  -12.4437    0.2991  -12.4504    0.3069   -0.0000  -50.4581
  7.600  -12.4062    0.2680  -12.4379    0.2885  -12.4040    0.2831  -12.4153    0.2560  -12.3925    0.2974  -12.3991    0.3051   -0.0000  -50.4581
  7.610  -12.3552    0.2664  -12.3868    0.2867  -12.3530    0.2814  -12.3642    0.2544  -12.3416    0.2957  -12.3482    0.3033   -0.0000  -50.4581
  7.620  -12.3045    0.2648  -12.3361    0.2850  -12.3023    0.2798  -12.3135    0.2528  -12.2910    0.2940  -12.2975    0.3016   -0.0000  -50.4581
  7.630  -12.2541    0.2633  -12.2856    0.2834  -12.2519    0.2782  -12.2631    0.2512  -12.2407    0.2923  -12.2472    0.2998   -0.0000  -50.4581
  7.640  -12.2040    0.2617  -12.2355    0.2817  -12.2018    0.2766  -12.2130    0.2496  -12.1907    0.2907  -12.1972    0.2981   -0.0000  -50.4581
  7.650  -12.1542    0.2602  -12.1857    0.2801  -12.1520    0.2750  -12.1632    0.2481  -12.1410    0.2890  -12.1474    0.2964   -0.0000  -50.4581
  7.660  -12.1047    0.2587  -12.1361    0.2784  -12.1026    0.2734  -12.1137    0.2465  -12.0917    0.2874  -12.0980    0.2948   -0.0000  -50.4581
  7.670  -12.0555    0.2572  -12.0869    0.2768  -12.0534    0.2719  -12.0645    0.2450  -12.0426    0.2858  -12.0489    0.2931   -0.0000  -50.4581
  7.680  -12.0065    0.2558  -12.0380    0.2752  -12.0045    0.2704  -12.0156    0.2435  -11.9938    0.2843  -12.0001    0.2915   -0.0000  -50.4581
  7.690  -11.9579    0.2543  -11.9893    0.2737  -11.9559    0.2689  -11.9670    0.2420  -11.9454    0.2827  -11.9515    0.2899   -0.0000  -50.4581
  7.700  -11.9096    0.2529  -11.9410    0.2721  -11.9076    0.2674  -11.9187    0.2406  -11.8972    0.2812  -11.9033    0.2883   -0.0000  -50.4581
  7.710  -11.8616    0.2515  -11.8930    0.2706  -11.8596    0.2659  -11.8707    0.2391  -11.8493    0.2797  -11.8553    0.2867   -0.0000  -50.4581
  7.720  -11.8138    0.2501  -11.8452    0.2691  -11.8119    0.2644  -11.8229    0.2377  -11.8016    0.2782  -11.8076    0.2851   -0.0000  -50.4581
  7.730  -11.7663    0.2487  -11.7977    0.2676  -11.7644    0.2630  -11.7755    0.2362  -11.7543    0.2767  -11.7603    0.2836   -0.0000  -50.4581
  7.740  -11.7191    0.2473  -11.7505    0.2661  -11.7172    0.2616  -11.7283    0.2348  -11.7072    0.2752  -11.7131    0.2821   -0.0000  -50.4581
  7.750  -11.6722    0.2460  -11.7036    0.2646  -11.6703    0.2601  -11.6813    0.2334  -11.6604    0.2738  -11.6663    0.2806   -0.0000  -50.4581
  7.760  -11.6256    0.2446  -11.6570    0.2632  -11.6237    0.2588  -11.6347    0.2321  -11.6139    0.2724  -11.6197    0.2791   -0.0000  -50.4581
  7.770  -11.5792    0.2433  -11.6106    0.2617  -11.5773    0.2574  -11.5883    0.2307  -11.5676    0.2710  -11.5734    0.2776   -0.0000  -50.4581
  7.780  -11.5330    0.2420  -11.5645    0.2603  -11.5312    0.2560  -11.5422    0.2294  -11.5216    0.2696  -11.5274    0.2762   -0.0000  -50.4581
  7.790  -11.4872    0.2407  -11.5186    0.2589  -11.4854    0.2547  -11.4963    0.2280  -11.4759    0.2682  -11.4816    0.2747   -0.0000  -50.4581
  7.800  -11.4416    0.2394  -11.4731    0.2575  -11.4398    0.2533  -11.4508    0.2267  -11.4304    0.2668  -11.4361    0.2733   -0.0000  -50.4581
  7.810  -11.3962    0.2382  -11.4278    0.2562  -11.3945    0.2520  -11.4054    0.2254  -11.3852    0.2655  -11.3908    0.2719   -0.0000  -50.4581
  7.820  -11.3511    0.2369  -11.3827    0.2548  -11.3494    0.2507  -11.3603    0.2241  -11.3402    0.2642  -11.3458    0.2705   -0.0000  -50.4581
  7.830  -11.3063    0.2357  -11.3379    0.2535  -11.3046    0.2494  -11.3155    0.2228  -11.2955    0.2629  -11.3010    0.2692   -0.0000  -50.4581
  7.840  -11.2617    0.2345  -11.2933    0.2521  -11.2600    0.2482  -11.2709    0.2215  -11.2510    0.2616  -11.2565    0.2678   -0.0000  -50.4581
  7.850  -11.2173    0.2333  -11.2490    0.2508  -11.2156    0.2469  -11.2266    0.2203  -11.2068    0.2603  -11.2122    0.2665   -0.0000  -50.4581
  7.860  -11.1732    0.2321  -11.2050    0.2495  -11.1715    0.2457  -11.1825    0.2190  -11.1628    0.2590  -11.1682    0.2652   -0.0000  -50.4581
  7.870  -11.1294    0.2309  -11.1612    0.2483  -11.1277    0.2444  -11.1386    0.2178  -11.1191    0.2578  -11.1244    0.2639   -0.0000  -50.4581
  7.880  -11.0857    0.2298  -11.1176    0.2470  -11.0841    0.2432  -11.0950    0.2166  -11.0756    0.2566  -11.0809    0.2626   -0.0000  -50.4581
  7.890  -11.0423    0.2286  -11.0742    0.2457  -11.0407    0.2420  -11.0516    0.2154  -11.0323    0.2553  -11.0376    0.2614   -0.0000  -50.4581
  7.900  -10.9992    0.2275  -11.0311    0.2445  -10.9975    0.2408  -11.0084    0.2142  -10.9893    0.2541  -10.9945    0.2601   -0.0000  -50.4581
  7.910  -10.9562    0.2264  -10.9883    0.2433  -10.9546    0.2397  -10.9655    0.2130  -10.9465    0.2530  -10.9516    0.2589   -0.0000  -50.4581
  7.920  -10.9135    0.2253  -10.9456    0.2421  -10.9119    0.2385  -10.9228    0.2118  -10.9039    0.2518  -10.9090    0.2577   -0.0000  -50.4581
  7.930  -10.8710    0.2242  -10.9032    0.2409  -10.8694    0.2374  -10.8803    0.2107  -10.8615    0.2506  -10.8666    0.2564   -0.0000  -50.4581
  7.940  -10.8287    0.2231  -10.8611    0.2397  -10.8272    0.2362  -10.8381    0.2095  -10.8194    0.2495  -10.8244    0.2553   -0.0000  -50.4581
  7.950  -10.7867    0.2221  -10.8191    0.2385  -10.7851    0.2351  -10.7961    0.2084  -10.7774    0.2484  -10.7825    0.2541   -0.0000  -50.4581
  7.960  -10.7448    0.2210  -10.7774    0.2374  -10.7433    0.2340  -10.7542    0.2073  -10.7357    0.2472  -10.7407    0.2529   -0.0000  -50.4581
  7.970  -10.7032    0.2200  -10.7358    0.2362  -10.7017    0.2329  -10.7126    0.2061  -10.6942    0.2461  -10.6992    0.2518   -0.0000  -50.4581
  7.980  -10.6618    0.2189  -10.6945    0.2351  -10.6603    0.2318  -10.6713    0.2050  -10.6530    0.2451  -10.6579    0.2507   -0.0000  -50.4581
  7.990  -10.6206    0.2179  -10.6535    0.2340  -10.6191    0.2308  -10.6301    0.2039  -10.6119    0.2440  -10.6168    0.2495   -0.0000  -50.4581
  8.000  -10.5796    0.2169  -10.6126    0.2329  -10.5782    0.2297  -10.5891    0.2029  -10.5710    0.2429  -10.5759    0.2484   -0.0000  -50.4581
  8.010  -10.5388    0.2160  -10.5719    0.2318  -10.5374    0.2287  -10.5483    0.2018  -10.5304    0.2419  -10.5352    0.2474   -0.0000  -50.4581
  8.020  -10.4982    0.2150  -10.5315    0.2307  -10.4968    0.2276  -10.5078    0.2007  -10.4899    0.2409  -10.4947    0.2463   -0.0000  -50.4581
  8.030  -10.4578    0.2140  -10.4912    0.2296  -10.4564    0.2266  -10.4674    0.1997  -10.4497    0.2399  -10.4544    0.2452   -0.0000  -50.4581
  8.040  -10.4177    0.2131  -10.4511    0.2286  -10.4162    0.2256  -10.4272    0.1986  -10.4096    0.2389  -10.4143    0.2442   -0.0000  -50.4581
  8.050  -10.3777    0.2121  -10.4113    0.2275  -10.3763    0.2246  -10.3873    0.1976  -10.3698    0.2379  -10.3744    0.2432   -0.0000  -50.4581
  8.060  -10.3378    0.2112  -10.3716    0.2265  -10.3365    0.2236  -10.3475    0.1966  -10.3301    0.2369  -10.3347    0.2422   -0.0000  -50.4581
  8.070  -10.2982    0.2103  -10.3322    0.2255  -10.2969    0.2227  -10.3079    0.1955  -10.2906    0.2359  -10.2952    0.2412   -0.0000  -50.4581
  8.080  -10.2588    0.2094  -10.2929    0.2245  -10.2574    0.2217  -10.2685    0.1945  -10.2513    0.2350  -10.2559    0.2402   -0.0000  -50.4581
  8.090  -10.2196    0.2085  -10.2539    0.2235  -10.2182    0.2208  -10.2293    0.1935  -10.2122    0.2341  -10.2168    0.2392   -0.0000  -50.4581
  8.100  -10.1805    0.2076  -10.2150    0.2225  -10.1792    0.2198  -10.1902    0.1925  -10.1733    0.2331  -10.1778    0.2382   -0.0000  -50.4581
  8.110  -10.1416    0.2068  -10.1763    0.2215  -10.1403    0.2189  -10.1514    0.1916  -10.1345    0.2322  -10.1390    0.2373   -0.0000  -50.4581
  8.120  -10.1029    0.2059  -10.1378    0.2206  -10.1016    0.2180  -10.1127    0.1906  -10.0960    0.2314  -10.1005    0.2364   -0.0000  -50.4581
  8.130  -10.0644    0.2051  -10.0994    0.2196  -10.0631    0.2171  -10.0742    0.1896  -10.0576    0.2305  -10.0620    0.2355   -0.0000  -50.4581
  8.140  -10.0260    0.2043  -10.0613    0.2187  -10.0247    0.2162  -10.0359    0.1887  -10.0194    0.2296  -10.0238    0.2346   -0.0000  -50.4581
  8.150   -9.9879    0.2035  -10.0233    0.2177   -9.9866    0.2153   -9.9978    0.1877   -9.9814    0.2288   -9.9857    0.2337   -0.0000  -50.4581
  8.160   -9.9498    0.2026   -9.9855    0.2168   -9.9486    0.2145   -9.9598    0.1868   -9.9435    0.2279   -9.9478    0.2328   -0.0000  -50.4581
  8.170   -9.9120    0.2019   -9.9479    0.2159   -9.9107    0.2136   -9.9220    0.1859   -9.9058    0.2271   -9.9101    0.2320   -0.0000  -50.4581
  8.180   -9.8743    0.2011   -9.9105    0.2150   -9.8731    0.2128   -9.8843    0.1850   -9.8683    0.2263   -9.8726    0.2311   -0.0000  -50.4581
  8.190   -9.8368    0.2003   -9.8732    0.2141   -9.8355    0.2120   -9.8468    0.1841   -9.8309    0.2255   -9.8352    0.2303   -0.0000  -50.4581
  8.200   -9.7994    0.1996   -9.8361    0.2133   -9.7982    0.2112   -9.8095    0.1831   -9.7937    0.2247   -9.7979    0.2295   -0.0000  -50.4581
  8.210   -9.7622    0.1988   -9.7991    0.2124   -9.7610    0.2104   -9.7724    0.1823   -9.7567    0.2240   -9.7609    0.2287   -0.0000  -50.4581
  8.220   -9.7252    0.1981   -9.7624    0.2116   -9.7240    0.2096   -9.7354    0.1814   -9.7198    0.2232   -9.7239    0.2279   -0.0000  -50.4581
  8.230   -9.6883    0.1974   -9.7257    0.2107   -9.6871    0.2088   -9.6985    0.1805   -9.6830    0.2225   -9.6872    0.2271   -0.0000  -50.4581
  8.240   -9.6515    0.1967   -9.6893    0.2099   -9.6503    0.2080   -9.6618    0.1796   -9.6465    0.2218   -9.6506    0.2264   -0.0000  -50.4581
  8.250   -9.6149    0.1960   -9.6530    0.2091   -9.6138    0.2073   -9.6253    0.1788   -9.6100    0.2210   -9.6141    0.2256   -0.0000  -50.4581
  8.260   -9.5785    0.1953   -9.6169    0.2083   -9.5773    0.2065   -9.5889    0.1779   -9.5737    0.2204   -9.5778    0.2249   -0.0000  -50.4581
  8.270   -9.5422    0.1946   -9.5809    0.2075   -9.5410    0.2058   -9.5526    0.1771   -9.5376    0.2197   -9.5416    0.2242   -0.0000  -50.4581
  8.280   -9.5060    0.1940   -9.5450    0.2067   -9.5049    0.2051   -9.5165    0.1762   -9.5016    0.2190   -9.5056    0.2235   -0.0000  -50.4581
  8.290   -9.4700    0.1933   -9.5093    0.2060   -9.4688    0.2044   -9.4805    0.1754   -9.4658    0.2184   -9.4697    0.2228   -0.0000  -50.4581
  8.300   -9.4341    0.1927   -9.4738    0.2052   -9.4329    0.2037   -9.4447    0.1746   -9.4300    0.2177   -9.4340    0.2221   -0.0000  -50.4581
  8.310   -9.3983    0.1921   -9.4384    0.2045   -9.3972    0.2030   -9.4090    0.1737   -9.3945    0.2171   -9.3984    0.2215   -0.0000  -50.4581
  8.320   -9.3627    0.1915   -9.4031    0.2037   -9.3616    0.2023   -9.3734    0.1729   -9.3590    0.2165   -9.3629    0.2209   -0.0000  -50.4581
  8.330   -9.3272    0.1909   -9.3680    0.2030   -9.3261    0.2017   -9.3380    0.1721   -9.3237    0.2159   -9.3276    0.2202   -0.0000  -50.4581
  8.340   -9.2918    0.1903   -9.3330    0.2023   -9.2907    0.2010   -9.3027    0.1713   -9.2885    0.2154   -9.2924    0.2196   -0.0000  -50.4581
  8.350   -9.2566    0.1898   -9.2982    0.2016   -9.2555    0.2004   -9.2675    0.1705   -9.2535    0.2148   -9.2573    0.2191   -0.0000  -50.4581
  8.360   -9.2215    0.1892   -9.2635    0.2009   -9.2203    0.1998   -9.2324    0.1698   -9.2185    0.2143   -9.2224    0.2185   -0.0000  -50.4581
  8.370   -9.1865    0.1887   -9.2289    0.2002   -9.1853    0.1992   -9.1975    0.1690   -9.1837    0.2137   -9.1875    0.2179   -0.0000  -50.4581
  8.380   -9.1516    0.1882   -9.1945    0.1996   -9.1504    0.1986   -9.1626    0.1682   -9.1490    0.2132   -9.1528    0.2174   -0.0000  -50.4581
  8.390   -9.1168    0.1877   -9.1602    0.1989   -9.1157    0.1980   -9.1279    0.1674   -9.1144    0.2127   -9.1182    0.2169   -0.0000  -50.4581
  8.400   -9.0821    0.1872   -9.1260    0.1983   -9.0810    0.1975   -9.0933    0.1667   -9.0800    0.2123   -9.0837    0.2164   -0.0000  -50.4581
  8.410   -9.0476    0.1867   -9.0919    0.1976   -9.0464    0.1969   -9.0588    0.1659   -9.0456    0.2118   -9.0494    0.2159   -0.0000  -50.4581
  8.420   -9.0131    0.1862   -9.0580    0.1970   -9.0120    0.1964   -9.0245    0.1652   -9.0114    0.2114   -9.0151    0.2155   -0.0000  -50.4581
  8.430   -8.9788    0.1858   -9.0241    0.1964   -8.9776    0.1959   -8.9902    0.1645   -8.9773    0.2110   -8.9809    0.2150   -0.0000  -50.4581
  8.440   -8.9445    0.1854   -8.9904    0.1958   -8.9434    0.1954   -8.9560    0.1637   -8.9432    0.2106   -8.9469    0.2146   -0.0000  -50.4581
  8.450   -8.9103    0.1850   -8.9568    0.1952   -8.9092    0.1949   -8.9219    0.1630   -8.9093    0.2102   -8.9129    0.2142   -0.0000  -50.4581
  8.460   -8.8763    0.1846   -8.9233    0.1947   -8.8752    0.1944   -8.8880    0.1623   -8.8755    0.2098   -8.8791    0.2138   -0.0000  -50.4581
  8.470   -8.8423    0.1842   -8.8900    0.1941   -8.8412    0.1940   -8.8541    0.1616   -8.8417    0.2095   -8.8453    0.2134   -0.0000  -50.4581
  8.480   -8.8084    0.1838   -8.8567    0.1936   -8.8073    0.1935   -8.8203    0.1609   -8.8081    0.2092   -8.8117    0.2131   -0.0000  -50.4581
  8.490   -8.7746    0.1835   -8.8235    0.1931   -8.7735    0.1931   -8.7866    0.1602   -8.7745    0.2089   -8.7781    0.2128   -0.0000  -50.4581
  8.500   -8.7409    0.1831   -8.7905    0.1925   -8.7397    0.1927   -8.7529    0.1595   -8.7411    0.2086   -8.7446    0.2125   -0.0000  -50.4581
  8.510   -8.7072    0.1828   -8.7575    0.1920   -8.7061    0.1923   -8.7194    0.1588   -8.7077    0.2084   -8.7112    0.2122   -0.0000  -50.4581
  8.520   -8.6736    0.1826   -8.7246    0.1916   -8.6725    0.1919   -8.6859    0.1581   -8.6744    0.2081   -8.6779    0.2119   -0.0000  -50.4581
  8.530   -8.6401    0.1823   -8.6918    0.1911   -8.6390    0.1916   -8.6525    0.1575   -8.6412    0.2079   -8.6446    0.2117   -0.0000  -50.4581
  8.540   -8.6067    0.1820   -8.6592    0.1906   -8.6056    0.1912   -8.6192    0.1568   -8.6080    0.2077   -8.6114    0.2115   -0.0000  -50.4581
  8.550   -8.5733    0.1818   -8.6266    0.1902   -8.5722    0.1909   -8.5859    0.1561   -8.5749    0.2076   -8.5783    0.2113   -0.0000  -50.4581
  8.560   -8.5400    0.1816   -8.5940    0.1898   -8.5388    0.1906   -8.5527    0.1555   -8.5419    0.2075   -8.5453    0.2112   -0.0000  -50.4581
  8.570   -8.5067    0.1814   -8.5616    0.1894   -8.5056    0.1903   -8.5196    0.1549   -8.5089    0.2074   -8.5123    0.2110   -0.0000  -50.4581
  8.580   -8.4735    0.1813   -8.5293    0.1890   -8.4723    0.1901   -8.4865    0.1542   -8.4760    0.2073   -8.4794    0.2109   -0.0000  -50.4581
  8.590   -8.4404    0.1811   -8.4970    0.1886   -8.4392    0.1898   -8.4535    0.1536   -8.4432    0.2072   -8.4466    0.2109   -0.0000  -50.4581
  8.600   -8.4072    0.1810   -8.4648    0.1882   -8.4060    0.1896   -8.4205    0.1530   -8.4104    0.2072   -8.4137    0.2108   -0.0000  -50.4581
  8.610   -8.3741    0.1809   -8.4327    0.1879   -8.3729    0.1894   -8.3875    0.1523   -8.3777    0.2072   -8.3810    0.2108   -0.0000  -50.4581
  8.620   -8.3411    0.1809   -8.4006    0.1875   -8.3399    0.1892   -8.3546    0.1517   -8.3450    0.2073   -8.3483    0.2109   -0.0000  -50.4581
  8.630   -8.3081    0.1808   -8.3686    0.1872   -8.3068    0.1891   -8.3217    0.1511   -8.3123    0.2074   -8.3156    0.2109   -0.0000  -50.4581
  8.640   -8.2751    0.1808   -8.3367    0.1869   -8.2738    0.1890   -8.2889    0.1505   -8.2797    0.2075   -8.2829    0.2110   -0.0000  -50.4581
  8.650   -8.2421    0.1809   -8.3048    0.1867   -8.2408    0.1889   -8.2560    0.1499   -8.2471    0.2076   -8.2503    0.2111   -0.0000  -50.4581
  8.660   -8.2091    0.1809   -8.2730    0.1864   -8.2078    0.1888   -8.2232    0.1493   -8.2145    0.2078   -8.2177    0.2113   -0.0000  -50.4581
  8.670   -8.1761    0.1810   -8.2412    0.1862   -8.1748    0.1888   -8.1904    0.1488   -8.1819    0.2080   -8.1852    0.2115   -0.0000  -50.4581
  8.680   -8.1432    0.1811   -8.2095    0.1860   -8.1418    0.1888   -8.1576    0.1482   -8.1494    0.2083   -8.1526    0.2118   -0.0000  -50.4581
  8.690   -8.1102    0.1813   -8.1778    0.1858   -8.1088    0.1888   -8.1248    0.1476   -8.1169    0.2086   -8.1201    0.2121   -0.0000  -50.4581
  8.700   -8.0772    0.1815   -8.1462    0.1856   -8.0758    0.1888   -8.0920    0.1471   -8.0843    0.2090   -8.0875    0.2124   -0.0000  -50.4581
  8.710   -8.0442    0.1817   -8.1146    0.1854   -8.0428    0.1889   -8.0592    0.1465   -8.0518    0.2094   -8.0550    0.2128   -0.0000  -50.4581
  8.720   -8.0112    0.1820   -8.0830    0.1853   -8.0097    0.1891   -8.0263    0.1460   -8.0193    0.2098   -8.0224    0.2132   -0.0000  -50.4581
  8.730   -7.9781    0.1823   -8.0514    0.1852   -7.9766    0.1892   -7.9935    0.1454   -7.9867    0.2103   -7.9898    0.2137   -0.0000  -50.4581
  8.740   -7.9450    0.1827   -8.0199    0.1851   -7.9435    0.1894   -7.9606    0.1449   -7.9541    0.2109   -7.9573    0.2142   -0.0000  -50.4581
  8.750   -7.9119    0.1831   -7.9884    0.1851   -7.9103    0.1896   -7.9276    0.1444   -7.9215    0.2115   -7.9246    0.2148   -0.0000  -50.4581
  8.760   -7.8787    0.1835   -7.9569    0.1851   -7.8770    0.1899   -7.8946    0.1439   -7.8889    0.2122   -7.8920    0.2155   -0.0000  -50.4581
  8.770   -7.8454    0.1840   -7.9254    0.1851   -7.8437    0.1903   -7.8616    0.1434   -7.8562    0.2129   -7.8593    0.2162   -0.0000  -50.4581
  8.780   -7.8121    0.1846   -7.8939    0.1851   -7.8103    0.1906   -7.8285    0.1429   -7.8235    0.2137   -7.8265    0.2169   -0.0000  -50.4581
  8.790   -7.7786    0.1852   -7.8624    0.1852   -7.7768    0.1910   -7.7953    0.1424   -7.7907    0.2146   -7.7937    0.2178   -0.0000  -50.4581
  8.800   -7.7451    0.1859   -7.8309    0.1853   -7.7433    0.1915   -7.7620    0.1419   -7.7578    0.2155   -7.7609    0.2187   -0.0000  -50.4581
  8.810   -7.7115    0.1867   -7.7993    0.1854   -7.7096    0.1920   -7.7286    0.1414   -7.7249    0.2165   -7.7279    0.2197   -0.0000  -50.4581
  8.820   -7.6777    0.1875   -7.7678    0.1856   -7.6757    0.1926   -7.6951    0.1410   -7.6919    0.2176   -7.6949    0.2208   -0.0000  -50.4581
  8.830   -7.6439    0.1884   -7.7362    0.1858   -7.6418    0.1933   -7.6615    0.1405   -7.6587    0.2188   -7.6617    0.2220   -0.0000  -50.4581
  8.840   -7.6099    0.1894   -7.7046    0.1860   -7.6077    0.1940   -7.6277    0.1401   -7.6255    0.2201   -7.6285    0.2232   -0.0000  -50.4581
  8.850   -7.5757    0.1904   -7.6729    0.1863   -7.5734    0.1947   -7.5938    0.1396   -7.5922    0.2215   -7.5951    0.2246   -0.0000  -50.4581
  8.860   -7.5414    0.1916   -7.6412    0.1866   -7.5390    0.1956   -7.5598    0.1392   -7.5587    0.2229   -7.5616    0.2260   -0.0000  -50.4581
  8.870   -7.5068    0.1928   -7.6094    0.1870   -7.5044    0.1965   -7.5255    0.1388   -7.5250    0.2245   -7.5280    0.2276   -0.0000  -50.4581
  8.880   -7.4721    0.1941   -7.5776    0.1874   -7.4695    0.1975   -7.4911    0.1384   -7.4913    0.2262   -7.4942    0.2293   -0.0000  -50.4581
  8.890   -7.4372    0.1956   -7.5456    0.1879   -7.4344    0.1986   -7.4564    0.1381   -7.4573    0.2281   -7.4602    0.2311   -0.0000  -50.4581
  8.900   -7.4020    0.1971   -7.5136    0.1884   -7.3991    0.1998   -7.4216    0.1377   -7.4232    0.2300   -7.4261    0.2331   -0.0000  -50.4581
  8.910   -7.3665    0.1988   -7.4815    0.1890   -7.3635    0.2011   -7.3864    0.1374   -7.3888    0.2321   -7.3917    0.2352   -0.0000  -50.4581
  8.920   -7.3308    0.2007   -7.4493    0.1896   -7.3276    0.2025   -7.3510    0.1370   -7.3542    0.2344   -7.3571    0.2374   -0.0000  -50.4581
  8.930   -7.2948    0.2026   -7.4170    0.1903   -7.2914    0.2041   -7.3153    0.1367   -7.3194    0.2368   -7.3223    0.2398   -0.0000  -50.4581
  8.940   -7.2585    0.2047   -7.3846    0.1910   -7.2549    0.2057   -7.2793    0.1364   -7.2843    0.2394   -7.2872    0.2424   -0.0000  -50.4581
  8.950   -7.2218    0.2070   -7.3520    0.1919   -7.2180    0.2075   -7.2429    0.1362   -7.2490    0.2422   -7.2518    0.2452   -0.0001  -50.4581
  8.960   -7.1847    0.2095   -7.3192    0.1928   -7.1806    0.2094   -7.2062    0.1359   -7.2133    0.2452   -7.2162    0.2482   -0.0004  -50.4581
  8.970   -7.1472    0.2121   -7.2863    0.1937   -7.1429    0.2115   -7.1690    0.1357   -7.1774    0.2485   -7.1802    0.2514   -0.0011  -50.4581
  8.980   -7.1093    0.2150   -7.2532    0.1948   -7.1047    0.2137   -7.1314    0.1355   -7.1410    0.2519   -7.1438    0.2548   -0.0028  -50.4581
  8.990   -7.0709    0.2181   -7.2199    0.1959   -7.0659    0.2162   -7.0934    0.1353   -7.1043    0.2557   -7.1071    0.2586   -0.0070  -50.4581
  9.000   -7.0320    0.2215   -7.1864    0.1972   -7.0267    0.2188   -7.0548    0.1352   -7.0672    0.2597   -7.0700    0.2625   -0.0170  -50.4581
  9.010   -6.9926    0.2251   -7.1527    0.1985   -6.9868    0.2217   -7.0156    0.1351   -7.0296    0.2640   -7.0324    0.2668   -0.0397  -50.4581
  9.020   -6.9525    0.2290   -7.1187    0.2000   -6.9463    0.2248   -6.9758    0.1350   -6.9915    0.2686   -6.9943    0.2715   -0.0888  -50.4581
  9.030   -6.9118    0.2333   -7.0845    0.2015   -6.9050    0.2281   -6.9354    0.1350   -6.9530    0.2737   -6.9558    0.2765   -0.1911  -50.4582
  9.040   -6.8704    0.2379   -7.0500    0.2032   -6.8631    0.2318   -6.8942    0.1350   -6.9139    0.2791   -6.9166    0.2819   -0.3954  -50.4584
  9.050   -6.8282    0.2429   -7.0151    0.2050   -6.8203    0.2357   -6.8523    0.1351   -6.8741    0.2849   -6.8769    0.2877   -0.7872  -50.4587
  9.060   -6.7852    0.2484   -6.9799    0.2070   -6.7766    0.2400   -6.8095    0.1352   -6.8338    0.2913   -6.8365    0.2941   -1.5088  -50.4592
  9.070   -6.7414    0.2543   -6.9444    0.2091   -6.7319    0.2447   -6.7657    0.1354   -6.7927    0.2981   -6.7955    0.3009   -2.7879  -50.4602
  9.080   -6.6966    0.2608   -6.9084    0.2114   -6.6862    0.2498   -6.7210    0.1357   -6.7509    0.3056   -6.7536    0.3083   -4.9748  -50.4621
  9.090   -6.6507    0.2679   -6.8721    0.2138   -6.6393    0.2553   -6.6751    0.1360   -6.7083    0.3137   -6.7110    0.3164   -8.5936  -50.4652
  9.100   -6.6037    0.2756   -6.8353    0.2164   -6.5911    0.2614   -6.6280    0.1365   -6.6648    0.3225   -6.6675    0.3252  -14.4137  -50.4705
  9.110   -6.5555    0.2841   -6.7980    0.2193   -6.5416    0.2681   -6.5795    0.1371   -6.6203    0.3321   -6.6230    0.3348  -23.5450  -50.4792
  9.120   -6.5059    0.2934   -6.7602    0.2224   -6.4905    0.2754   -6.5296    0.1377   -6.5749    0.3426   -6.5776    0.3453  -37.5480  -50.4930
  9.130   -6.4549    0.3037   -6.7218    0.2257   -6.4377    0.2834   -6.4780    0.1386   -6.5283    0.3541   -6.5310    0.3568  -58.5075  -50.5145
  9.140   -6.4024    0.3150   -6.6828    0.2293   -6.3831    0.2923   -6.4246    0.1396   -6.4805    0.3667   -6.4832    0.3694  -88.9565  -50.5472
  9.150   -6.3481    0.3275   -6.6432    0.2331   -6.3265    0.3021   -6.3692    0.1408   -6.4314    0.3806   -6.4341    0.3832 -131.4927  -50.5955
  9.160   -6.2919    0.3414   -6.6028    0.2373   -6.2676    0.3129   -6.3115    0.1422   -6.3809    0.3959   -6.3836    0.3985 -187.9631  -50.6646
  9.170   -6.2336    0.3568   -6.5617    0.2419   -6.2062    0.3250   -6.2514    0.1439   -6.3289    0.4128   -6.3315    0.4154 -258.2944  -50.7595
  9.180   -6.1731    0.3740   -6.5198    0.2468   -6.1419    0.3384   -6.1885    0.1459   -6.2752    0.4315   -6.2779    0.4341 -339.3647  -50.8842
  9.190   -6.1102    0.3932   -6.4770    0.2521   -6.0746    0.3535   -6.1225    0.1483   -6.2198    0.4523   -6.2224    0.4549 -424.5764  -51.0402
  9.200   -6.0445    0.4148   -6.4333    0.2579   -6.0038    0.3704   -6.0529    0.1511   -6.1624    0.4755   -6.1650    0.4781 -504.7162  -51.2257
  9.210   -5.9759    0.4391   -6.3886    0.2641   -5.9290    0.3895   -5.9793    0.1545   -6.1030    0.5015   -6.1056    0.5041 -570.1369  -51.4352
  9.220   -5.9040    0.4665   -6.3427    0.2708   -5.8497    0.4112   -5.9012    0.1585   -6.0413    0.5307   -6.0439    0.5333 -613.4892  -51.6607
  9.230   -5.8286    0.4977   -6.2957    0.2781   -5.7654    0.4359   -5.8177    0.1633   -5.9772    0.5636   -5.9798    0.5661 -631.7235  -51.8928
  9.240   -5.7493    0.5332   -6.2473    0.2859   -5.6753    0.4641   -5.7283    0.1691   -5.9107    0.6008   -5.9132    0.6033 -626.3367  -52.1230
  9.250   -5.6658    0.5738   -6.1975    0.2945   -5.5786    0.4967   -5.6317    0.1762   -5.8414    0.6430   -5.8440    0.6456 -601.8196  -52.3442
  9.260   -5.5777    0.6205   -6.1461    0.3038   -5.4743    0.5346   -5.5270    0.1849   -5.7693    0.6913   -5.7719    0.6939 -563.3181  -52.5512
  9.270   -5.4846    0.6744   -6.0930    0.3139   -5.3611    0.5789   -5.4126    0.1958   -5.6945    0.7467   -5.6970    0.7492 -514.8999  -52.7404
  9.280   -5.3863    0.7370   -6.0382    0.3249   -5.2377    0.6313   -5.2868    0.2094   -5.6168    0.8105   -5.6194    0.8130 -459.2569  -52.9092
  9.290   -5.2824    0.8100   -5.9813    0.3367   -5.1022    0.6936   -5.1472    0.2267   -5.5366    0.8843   -5.5391    0.8869 -398.6381  -53.0557
  9.300   -5.1727    0.8956   -5.9224    0.3495   -4.9525    0.7687   -4.9910    0.2489   -5.4543    0.9703   -5.4568    0.9729 -336.0632  -53.1792
  9.310   -5.0573    0.9964   -5.8610    0.3632   -4.7858    0.8604   -4.8144    0.2778   -5.3706    1.0707   -5.3731    1.0733 -275.8820  -53.2806
  9.320   -4.9365    1.1154   -5.7971    0.3777   -4.5991    0.9738   -4.6127    0.3164   -5.2870    1.1886   -5.2894    1.1912 -223.3596  -53.3626
  9.330   -4.8110    1.2567   -5.7304    0.3929   -4.3882    1.1165   -4.3793    0.3686   -5.2055    1.3274   -5.2079    1.3301 -183.6600  -53.4301
  9.340   -4.6822    1.4248   -5.6604    0.4082   -4.1485    1.2993   -4.1057    0.4411   -5.1297    1.4914   -5.1319    1.4942 -160.8944  -53.4893
  9.350   -4.5520    1.6252   -5.5866    0.4231   -3.8749    1.5387   -3.7804    0.5444   -5.0646    1.6851   -5.0667    1.6880 -157.7330  -53.5472
  9.360   -4.4235    1.8645   -5.5081    0.4362   -3.5624    1.8602   -3.3879    0.6965   -5.0180    1.9137   -5.0200    1.9168 -175.7429  -53.6118
  9.370   -4.3001    2.1513   -5.4230    0.4453   -3.2095    2.3046   -2.9080    0.9285   -5.0014    2.1824   -5.0033    2.1858 -216.7262  -53.6915
  9.380   -4.1861    2.4980   -5.3278    0.4466   -2.8262    2.9384   -2.3176    1.2970   -5.0318    2.4959   -5.0336    2.4997 -286.4843  -53.7967
  9.390   -4.0878    2.9276   -5.2144    0.4346   -2.4578    3.8705   -1.6010    1.9084   -5.1358    2.8565   -5.1376    2.8611 -402.8907  -53.9448
  9.400   -4.0251    3.4859   -5.0638    0.4027   -2.2525    5.2652   -0.7956    2.9603   -5.3580    3.2591   -5.3601    3.2648 -604.7386  -54.1670
  9.410   -4.0785    4.2530   -4.8352    0.3552   -2.6236    7.2793   -0.1476    4.7705   -5.7749    3.6650   -5.7779    3.6721 -955.6338  -54.5182
  9.420   -4.5022    5.2654   -4.4640    0.3508   -4.4369    9.6234   -0.4640    7.5265   -6.4731    3.9216   -6.4786    3.9301 *********  -55.0787
  9.430   -5.6625    6.1512   -3.9662    0.5567   -8.1896   10.6157   -2.9279   10.1670   -7.3279    3.7145   -7.3373    3.7222 *********  -55.9340
  9.440   -7.2285    6.1597   -3.5818    1.0441  -11.7482    8.6576   -6.6537   10.4482   -7.8262    3.0315   -7.8381    3.0355 *********  -57.3346
  9.450   -8.3211    5.4276   -3.4406    1.5917  -12.9251    5.5585   -9.1002    8.7308   -7.8102    2.3881   -7.8215    2.3884 *********  -58.6108
  9.460   -8.8263    4.6019   -3.4163    2.0730  -12.5128    3.2409   -9.9755    6.8733   -7.5886    2.0114   -7.5983    2.0096 *********  -59.3696
  9.470   -9.0133    3.9262   -3.4194    2.5266  -11.6483    1.8554  -10.0944    5.5272   -7.3475    1.8296   -7.3557    1.8267 *********  -60.0871
  9.480   -9.0601    3.4050   -3.4450    3.0096  -10.7807    1.0717   -9.9702    4.6438   -7.1300    1.7685   -7.1369    1.7651 *********  -60.8668
  9.490   -9.0490    3.0011   -3.5277    3.5557  -10.0178    0.6433   -9.8146    4.0706   -6.9453    1.7969   -6.9511    1.7930 *********  -61.6948
  9.500   -9.0187    2.6805   -3.7230    4.1724   -9.3688    0.4365   -9.7078    3.6857   -6.8066    1.9029   -6.8114    1.8987 *********  -62.5142
  9.510   -8.9888    2.4151   -4.0988    4.8308   -8.8275    0.3828   -9.6770    3.3979   -6.7382    2.0748   -6.7420    2.0704 *********  -63.2720
  9.520   -8.9670    2.1800   -4.7143    5.4509   -8.3959    0.4425   -9.7199    3.1339   -6.7701    2.2856   -6.7727    2.2811 *********  -63.9473
  9.530   -8.9492    1.9542   -5.5776    5.9014   -8.0849    0.5787   -9.8062    2.8368   -6.9213    2.4849   -6.9229    2.4806 *********  -64.5490
  9.540   -8.9221    1.7265   -6.6010    6.0456   -7.9004    0.7443   -9.8827    2.4799   -7.1780    2.6087   -7.1785    2.6049 *********  -65.0958
  9.550   -8.8705    1.4992   -7.6110    5.8252   -7.8268    0.8883   -9.8952    2.0780   -7.4847    2.6104   -7.4844    2.6073 *********  -65.6022
  9.560   -8.7880    1.2852   -8.4355    5.3065   -7.8252    0.9764   -9.8183    1.6763   -7.7704    2.4891   -7.7695    2.4867 *********  -66.0742
  9.570   -8.6798    1.0971   -8.9907    4.6328   -7.8518    1.0020   -9.6635    1.3190   -7.9852    2.2834   -7.9840    2.2818 *********  -66.5122
  9.580   -8.5569    0.9407   -9.2894    3.9391   -7.8757    0.9791   -9.4614    1.0283   -8.1152    2.0424   -8.1140    2.0416 *********  -66.9125
  9.590   -8.4298    0.8147   -9.3940    3.3074   -7.8830    0.9272   -9.2420    0.8049   -8.1717    1.8029   -8.1705    1.8028 -971.3734  -67.2695
  9.600   -8.3054    0.7144   -9.3720    2.7693   -7.8714    0.8622   -9.0254    0.6386   -8.1743    1.5845   -8.1733    1.5849 -837.7627  -67.5773
  9.610   -8.1875    0.6344   -9.2762    2.3268   -7.8439    0.7944   -8.8220    0.5162   -8.1414    1.3942   -8.1406    1.3949 -693.2335  -67.8321
  9.620   -8.0774    0.5700   -9.1421    1.9686   -7.8046    0.7292   -8.6360    0.4261   -8.0869    1.2320   -8.0863    1.2330 -546.7641  -68.0330
  9.630   -7.9753    0.5174   -8.9915    1.6800   -7.7575    0.6693   -8.4677    0.3593   -8.0204    1.0951   -8.0199    1.0964 -408.9014  -68.1833
  9.640   -7.8807    0.4739   -8.8371    1.4471   -7.7055    0.6153   -8.3162    0.3093   -7.9478    0.9799   -7.9476    0.9813 -288.8039  -68.2894
  9.650   -7.7930    0.4375   -8.6858    1.2582   -7.6510    0.5674   -8.1796    0.2713   -7.8732    0.8826   -7.8731    0.8841 -192.0677  -68.3600
  9.660   -7.7114    0.4065   -8.5411    1.1039   -7.5954    0.5251   -8.0561    0.2421   -7.7986    0.8002   -7.7987    0.8018 -120.0079  -68.4041
  9.670   -7.6352    0.3799   -8.4047    0.9769   -7.5397    0.4877   -7.9440    0.2192   -7.7256    0.7299   -7.7258    0.7316  -70.3332  -68.4299
  9.680   -7.5639    0.3568   -8.2770    0.8714   -7.4846    0.4547   -7.8416    0.2012   -7.6548    0.6697   -7.6551    0.6714  -38.6175  -68.4441
  9.690   -7.4968    0.3366   -8.1578    0.7831   -7.4306    0.4256   -7.7478    0.1867   -7.5865    0.6177   -7.5869    0.6194  -19.8471  -68.4514
  9.700   -7.4336    0.3188   -8.0468    0.7087   -7.3779    0.3997   -7.6612    0.1750   -7.5210    0.5725   -7.5215    0.5743   -9.5415  -68.4549
  9.710   -7.3738    0.3030   -7.9433    0.6455   -7.3266    0.3768   -7.5810    0.1654   -7.4583    0.5331   -7.4588    0.5349   -4.2888  -68.4565
  9.720   -7.3170    0.2888   -7.8468    0.5913   -7.2768    0.3563   -7.5063    0.1574   -7.3982    0.4985   -7.3988    0.5003   -1.8018  -68.4572
  9.730   -7.2629    0.2762   -7.7565    0.5447   -7.2285    0.3379   -7.4365    0.1507   -7.3406    0.4679   -7.3412    0.4697   -0.7073  -68.4574
  9.740   -7.2114    0.2647   -7.6720    0.5043   -7.1817    0.3214   -7.3710    0.1450   -7.2854    0.4408   -7.2861    0.4426   -0.2594  -68.4575
  9.750   -7.1620    0.2543   -7.5926    0.4690   -7.1363    0.3065   -7.3093    0.1401   -7.2325    0.4166   -7.2333    0.4184   -0.0889  -68.4576
  9.760   -7.1147    0.2449   -7.5179    0.4381   -7.0923    0.2931   -7.2509    0.1359   -7.1817    0.3949   -7.1825    0.3968   -0.0284  -68.4576
  9.770   -7.0692    0.2362   -7.4474    0.4109   -7.0496    0.2809   -7.1956    0.1323   -7.1329    0.3754   -7.1337    0.3773   -0.0085  -68.4576
  9.780   -7.0254    0.2283   -7.3807    0.3867   -7.0082    0.2698   -7.1430    0.1291   -7.0859    0.3578   -7.0868    0.3597   -0.0024  -68.4576
  9.790   -6.9832    0.2210   -7.3176    0.3652   -6.9680    0.2597   -7.0928    0.1263   -7.0406    0.3419   -7.0415    0.3437   -0.0006  -68.4576
  9.800   -6.9424    0.2143   -7.2575    0.3461   -6.9290    0.2504   -7.0448    0.1238   -6.9969    0.3274   -6.9978    0.3293   -0.0002  -68.4576
  9.810   -6.9029    0.2081   -7.2004    0.3288   -6.8910    0.2419   -6.9988    0.1215   -6.9546    0.3142   -6.9556    0.3160   -0.0000  -68.4576
  9.820   -6.8647    0.2023   -7.1459    0.3133   -6.8540    0.2341   -6.9546    0.1195   -6.9137    0.3021   -6.9147    0.3040   -0.0000  -68.4576
  9.830   -6.8275    0.1970   -7.0937    0.2993   -6.8180    0.2269   -6.9121    0.1177   -6.8741    0.2910   -6.8751    0.2929   -0.0000  -68.4576
  9.840   -6.7915    0.1920   -7.0438    0.2866   -6.7829    0.2202   -6.8711    0.1160   -6.8357    0.2808   -6.8367    0.2826   -0.0000  -68.4576
  9.850   -6.7564    0.1873   -6.9959    0.2751   -6.7487    0.2140   -6.8315    0.1145   -6.7984    0.2714   -6.7995    0.2732   -0.0000  -68.4576
  9.860   -6.7222    0.1830   -6.9498    0.2645   -6.7153    0.2082   -6.7932    0.1131   -6.7622    0.2627   -6.7632    0.2645   -0.0000  -68.4576
  9.870   -6.6889    0.1789   -6.9054    0.2549   -6.6826    0.2029   -6.7560    0.1118   -6.7269    0.2546   -6.7279    0.2565   -0.0000  -68.4576
  9.880   -6.6564    0.1751   -6.8626    0.2460   -6.6506    0.1979   -6.7200    0.1106   -6.6925    0.2471   -6.6936    0.2490   -0.0000  -68.4576
  9.890   -6.6246    0.1715   -6.8213    0.2379   -6.6194    0.1933   -6.6850    0.1095   -6.6590    0.2402   -6.6601    0.2420   -0.0000  -68.4576
  9.900   -6.5935    0.1681   -6.7813    0.2304   -6.5888    0.1889   -6.6509    0.1085   -6.6263    0.2337   -6.6274    0.2355   -0.0000  -68.4576
  9.910   -6.5631    0.1649   -6.7426    0.2234   -6.5588    0.1848   -6.6178    0.1075   -6.5943    0.2276   -6.5954    0.2294   -0.0000  -68.4576
  9.920   -6.5334    0.1618   -6.7050    0.2170   -6.5294    0.1810   -6.5854    0.1066   -6.5631    0.2219   -6.5642    0.2237   -0.0000  -68.4576
  9.930   -6.5042    0.1590   -6.6686    0.2110   -6.5006    0.1773   -6.5539    0.1057   -6.5325    0.2166   -6.5337    0.2184   -0.0000  -68.4576
  9.940   -6.4756    0.1563   -6.6331    0.2054   -6.4722    0.1739   -6.5230    0.1049   -6.5026    0.2116   -6.5038    0.2134   -0.0000  -68.4576
  9.950   -6.4476    0.1537   -6.5986    0.2002   -6.4444    0.1707   -6.4929    0.1041   -6.4733    0.2069   -6.4744    0.2087   -0.0000  -68.4576
  9.960   -6.4200    0.1512   -6.5650    0.1954   -6.4171    0.1677   -6.4634    0.1034   -6.4446    0.2024   -6.4457    0.2042   -0.0000  -68.4576
  9.970   -6.3929    0.1489   -6.5322    0.1909   -6.3902    0.1648   -6.4345    0.1027   -6.4164    0.1982   -6.4175    0.2000   -0.0000  -68.4576
  9.980   -6.3663    0.1467   -6.5003    0.1866   -6.3638    0.1621   -6.4061    0.1020   -6.3887    0.1943   -6.3898    0.1961   -0.0000  -68.4576
  9.990   -6.3401    0.1446   -6.4690    0.1826   -6.3378    0.1595   -6.3783    0.1013   -6.3615    0.1905   -6.3627    0.1923   -0.0000  -68.4576
 10.000   -6.3143    0.1426   -6.4385    0.1789   -6.3122    0.1570   -6.3511    0.1007   -6.3348    0.1870   -6.3359    0.1888   -0.0000  -68.4576
