# Macroscopic dielectric function obtained with the BS equation.
#  RPA L0 with KS energies and KS wavefunctions     LOCAL FIELD EFFECTS INCLUDED
# RESONANT-ONLY calculation
# Coulomb term constructed with full W(G1,G2)
# Scissor operator energy =  0.8000 [eV]
# Tolerance = -0.0010 0.0000
# npweps  = 113
# npwwfn  = 259
# nbands  = 8
# loband  = 2
# nkibz   = 3
# nkbz    = 8
# Lorentzian broadening =  0.0001 [eV]
# List of q-points for the optical limit:
# q =  0.938821, 0.000000, 0.000000, [Reduced coords] 
# q =  0.000000, 0.938821, 0.000000, [Reduced coords] 
# q =  0.000000, 0.000000, 0.938821, [Reduced coords] 
# q =  0.000000, 0.813043, 0.813043, [Reduced coords] 
# q =  0.813043, 0.000000, 0.813043, [Reduced coords] 
# q =  0.813043, 0.813043, 0.000000, [Reduced coords] 
# omega [eV]    RE(eps(q=1)) IM(eps(q=1) RE(eps(q=2) ) ... 
  0.000   55.7451    0.0000   55.6906    0.0000   55.7020    0.0000   55.7206    0.0000   55.7987    0.0000   55.7944    0.0000
  0.010   55.7456    0.0087   55.6912    0.0093   55.7026    0.0093   55.7211    0.0087   55.7992    0.0094   55.7949    0.0094
  0.020   55.7473    0.0174   55.6929    0.0186   55.7043    0.0185   55.7228    0.0174   55.8009    0.0188   55.7966    0.0188
  0.030   55.7501    0.0261   55.6957    0.0278   55.7071    0.0278   55.7256    0.0260   55.8038    0.0282   55.7995    0.0283
  0.040   55.7541    0.0348   55.6996    0.0371   55.7110    0.0371   55.7296    0.0347   55.8077    0.0376   55.8034    0.0377
  0.050   55.7591    0.0435   55.7047    0.0464   55.7161    0.0463   55.7346    0.0434   55.8128    0.0470   55.8085    0.0471
  0.060   55.7653    0.0523   55.7109    0.0557   55.7222    0.0556   55.7408    0.0521   55.8190    0.0564   55.8147    0.0566
  0.070   55.7726    0.0610   55.7182    0.0650   55.7296    0.0649   55.7482    0.0608   55.8263    0.0659   55.8220    0.0660
  0.080   55.7811    0.0697   55.7266    0.0743   55.7380    0.0742   55.7566    0.0695   55.8348    0.0753   55.8305    0.0755
  0.090   55.7907    0.0785   55.7362    0.0836   55.7475    0.0835   55.7662    0.0782   55.8444    0.0848   55.8401    0.0849
  0.100   55.8014    0.0872   55.7468    0.0930   55.7582    0.0928   55.7769    0.0870   55.8552    0.0942   55.8509    0.0944
  0.110   55.8132    0.0960   55.7587    0.1023   55.7701    0.1022   55.7887    0.0957   55.8670    0.1037   55.8627    0.1039
  0.120   55.8262    0.1047   55.7716    0.1117   55.7830    0.1115   55.8017    0.1045   55.8801    0.1131   55.8758    0.1134
  0.130   55.8403    0.1135   55.7857    0.1210   55.7971    0.1209   55.8158    0.1132   55.8942    0.1226   55.8899    0.1229
  0.140   55.8556    0.1223   55.8009    0.1304   55.8123    0.1302   55.8311    0.1220   55.9095    0.1321   55.9052    0.1324
  0.150   55.8720    0.1312   55.8172    0.1398   55.8287    0.1396   55.8474    0.1308   55.9259    0.1417   55.9216    0.1419
  0.160   55.8895    0.1400   55.8347    0.1492   55.8461    0.1490   55.8650    0.1396   55.9435    0.1512   55.9392    0.1515
  0.170   55.9082    0.1488   55.8534    0.1586   55.8648    0.1584   55.8836    0.1484   55.9622    0.1608   55.9579    0.1611
  0.180   55.9280    0.1577   55.8731    0.1681   55.8846    0.1679   55.9035    0.1573   55.9821    0.1703   55.9778    0.1707
  0.190   55.9490    0.1666   55.8940    0.1776   55.9055    0.1773   55.9244    0.1661   56.0032    0.1799   55.9988    0.1803
  0.200   55.9711    0.1755   55.9161    0.1871   55.9276    0.1868   55.9465    0.1750   56.0253    0.1896   56.0210    0.1899
  0.210   55.9944    0.1844   55.9393    0.1966   55.9508    0.1963   55.9698    0.1839   56.0487    0.1992   56.0444    0.1996
  0.220   56.0188    0.1934   55.9637    0.2061   55.9752    0.2059   55.9942    0.1929   56.0732    0.2089   56.0689    0.2093
  0.230   56.0444    0.2024   55.9892    0.2157   56.0007    0.2154   56.0198    0.2018   56.0989    0.2186   56.0945    0.2190
  0.240   56.0712    0.2114   56.0159    0.2253   56.0274    0.2250   56.0466    0.2108   56.1257    0.2283   56.1214    0.2287
  0.250   56.0991    0.2204   56.0438    0.2349   56.0553    0.2346   56.0745    0.2198   56.1537    0.2381   56.1494    0.2385
  0.260   56.1282    0.2295   56.0728    0.2446   56.0843    0.2442   56.1036    0.2289   56.1829    0.2478   56.1786    0.2483
  0.270   56.1585    0.2385   56.1030    0.2542   56.1145    0.2539   56.1339    0.2379   56.2132    0.2577   56.2089    0.2581
  0.280   56.1900    0.2477   56.1344    0.2639   56.1459    0.2636   56.1653    0.2470   56.2448    0.2675   56.2405    0.2680
  0.290   56.2226    0.2568   56.1669    0.2737   56.1785    0.2733   56.1979    0.2561   56.2775    0.2774   56.2732    0.2779
  0.300   56.2564    0.2660   56.2007    0.2835   56.2122    0.2831   56.2317    0.2653   56.3114    0.2873   56.3071    0.2878
  0.310   56.2915    0.2752   56.2356    0.2933   56.2471    0.2929   56.2667    0.2745   56.3465    0.2972   56.3422    0.2978
  0.320   56.3277    0.2845   56.2717    0.3031   56.2833    0.3028   56.3029    0.2837   56.3829    0.3072   56.3785    0.3078
  0.330   56.3651    0.2937   56.3090    0.3130   56.3206    0.3126   56.3403    0.2930   56.4204    0.3173   56.4160    0.3179
  0.340   56.4037    0.3031   56.3476    0.3230   56.3591    0.3226   56.3789    0.3023   56.4591    0.3273   56.4548    0.3279
  0.350   56.4436    0.3124   56.3873    0.3329   56.3989    0.3325   56.4188    0.3116   56.4990    0.3374   56.4947    0.3381
  0.360   56.4846    0.3218   56.4282    0.3429   56.4398    0.3425   56.4598    0.3210   56.5402    0.3476   56.5359    0.3482
  0.370   56.5269    0.3313   56.4704    0.3530   56.4820    0.3526   56.5020    0.3304   56.5826    0.3578   56.5783    0.3585
  0.380   56.5704    0.3408   56.5138    0.3631   56.5254    0.3626   56.5455    0.3399   56.6262    0.3680   56.6219    0.3687
  0.390   56.6151    0.3503   56.5584    0.3733   56.5700    0.3728   56.5902    0.3494   56.6711    0.3783   56.6667    0.3790
  0.400   56.6611    0.3599   56.6042    0.3834   56.6159    0.3830   56.6362    0.3589   56.7172    0.3887   56.7128    0.3894
  0.410   56.7083    0.3695   56.6513    0.3937   56.6630    0.3932   56.6834    0.3685   56.7645    0.3990   56.7602    0.3998
  0.420   56.7568    0.3792   56.6997    0.4040   56.7114    0.4035   56.7319    0.3782   56.8131    0.4095   56.8088    0.4102
  0.430   56.8065    0.3889   56.7493    0.4143   56.7610    0.4138   56.7816    0.3879   56.8630    0.4200   56.8586    0.4208
  0.440   56.8575    0.3986   56.8001    0.4247   56.8119    0.4242   56.8325    0.3976   56.9141    0.4305   56.9098    0.4313
  0.450   56.9098    0.4085   56.8523    0.4352   56.8640    0.4347   56.8848    0.4074   56.9665    0.4411   56.9622    0.4419
  0.460   56.9633    0.4183   56.9057    0.4457   56.9174    0.4452   56.9383    0.4173   57.0202    0.4518   57.0159    0.4526
  0.470   57.0182    0.4283   56.9604    0.4563   56.9721    0.4557   56.9931    0.4272   57.0752    0.4625   57.0709    0.4634
  0.480   57.0743    0.4383   57.0163    0.4669   57.0281    0.4663   57.0492    0.4372   57.1315    0.4733   57.1271    0.4742
  0.490   57.1318    0.4483   57.0736    0.4776   57.0854    0.4770   57.1066    0.4472   57.1891    0.4841   57.1847    0.4850
  0.500   57.1905    0.4584   57.1322    0.4884   57.1440    0.4878   57.1654    0.4573   57.2480    0.4950   57.2436    0.4959
  0.510   57.2506    0.4686   57.1921    0.4992   57.2039    0.4986   57.2254    0.4674   57.3082    0.5060   57.3039    0.5069
  0.520   57.3120    0.4788   57.2533    0.5101   57.2652    0.5094   57.2868    0.4777   57.3698    0.5171   57.3654    0.5180
  0.530   57.3747    0.4891   57.3159    0.5210   57.3278    0.5204   57.3495    0.4879   57.4327    0.5282   57.4283    0.5291
  0.540   57.4387    0.4995   57.3798    0.5320   57.3917    0.5314   57.4135    0.4983   57.4969    0.5394   57.4925    0.5403
  0.550   57.5042    0.5099   57.4450    0.5431   57.4569    0.5425   57.4789    0.5087   57.5625    0.5506   57.5581    0.5516
  0.560   57.5710    0.5204   57.5116    0.5543   57.5236    0.5536   57.5457    0.5192   57.6295    0.5619   57.6251    0.5629
  0.570   57.6391    0.5310   57.5796    0.5655   57.5915    0.5649   57.6138    0.5297   57.6978    0.5733   57.6934    0.5744
  0.580   57.7087    0.5416   57.6489    0.5769   57.6609    0.5762   57.6833    0.5403   57.7676    0.5848   57.7632    0.5859
  0.590   57.7796    0.5523   57.7197    0.5883   57.7317    0.5875   57.7542    0.5510   57.8387    0.5964   57.8343    0.5974
  0.600   57.8519    0.5631   57.7918    0.5997   57.8038    0.5990   57.8265    0.5618   57.9112    0.6080   57.9068    0.6091
  0.610   57.9257    0.5740   57.8654    0.6113   57.8774    0.6106   57.9002    0.5727   57.9852    0.6198   57.9808    0.6209
  0.620   58.0008    0.5850   57.9403    0.6229   57.9524    0.6222   57.9753    0.5836   58.0606    0.6316   58.0561    0.6327
  0.630   58.0774    0.5960   58.0167    0.6347   58.0288    0.6339   58.0519    0.5946   58.1374    0.6435   58.1329    0.6446
  0.640   58.1555    0.6071   58.0945    0.6465   58.1066    0.6457   58.1299    0.6057   58.2156    0.6555   58.2112    0.6566
  0.650   58.2350    0.6183   58.1738    0.6584   58.1859    0.6576   58.2094    0.6169   58.2954    0.6676   58.2909    0.6687
  0.660   58.3159    0.6296   58.2546    0.6704   58.2667    0.6696   58.2903    0.6282   58.3765    0.6797   58.3721    0.6809
  0.670   58.3984    0.6410   58.3368    0.6825   58.3489    0.6817   58.3727    0.6395   58.4592    0.6920   58.4548    0.6932
  0.680   58.4823    0.6524   58.4205    0.6947   58.4327    0.6939   58.4566    0.6510   58.5434    0.7044   58.5390    0.7056
  0.690   58.5678    0.6640   58.5057    0.7070   58.5179    0.7061   58.5421    0.6625   58.6291    0.7168   58.6246    0.7181
  0.700   58.6547    0.6757   58.5924    0.7193   58.6047    0.7185   58.6290    0.6742   58.7163    0.7294   58.7118    0.7307
  0.710   58.7432    0.6874   58.6806    0.7318   58.6929    0.7310   58.7174    0.6859   58.8050    0.7421   58.8006    0.7434
  0.720   58.8333    0.6993   58.7704    0.7444   58.7827    0.7436   58.8074    0.6977   58.8953    0.7549   58.8909    0.7562
  0.730   58.9249    0.7112   58.8618    0.7571   58.8741    0.7563   58.8990    0.7097   58.9872    0.7678   58.9827    0.7691
  0.740   59.0180    0.7233   58.9547    0.7699   58.9670    0.7691   58.9921    0.7217   59.0806    0.7808   59.0761    0.7821
  0.750   59.1128    0.7355   59.0492    0.7829   59.0615    0.7820   59.0868    0.7339   59.1756    0.7939   59.1711    0.7952
  0.760   59.2091    0.7477   59.1452    0.7959   59.1576    0.7950   59.1832    0.7461   59.2722    0.8071   59.2678    0.8085
  0.770   59.3071    0.7601   59.2429    0.8091   59.2554    0.8081   59.2811    0.7585   59.3705    0.8205   59.3660    0.8219
  0.780   59.4067    0.7726   59.3422    0.8223   59.3547    0.8214   59.3806    0.7710   59.4704    0.8340   59.4659    0.8354
  0.790   59.5079    0.7853   59.4432    0.8357   59.4557    0.8348   59.4818    0.7836   59.5719    0.8476   59.5674    0.8490
  0.800   59.6108    0.7980   59.5458    0.8493   59.5583    0.8483   59.5847    0.7963   59.6751    0.8613   59.6706    0.8628
  0.810   59.7154    0.8109   59.6501    0.8629   59.6626    0.8619   59.6892    0.8092   59.7800    0.8752   59.7755    0.8766
  0.820   59.8217    0.8238   59.7560    0.8767   59.7686    0.8757   59.7955    0.8222   59.8865    0.8892   59.8820    0.8906
  0.830   59.9297    0.8370   59.8637    0.8906   59.8764    0.8896   59.9034    0.8353   59.9948    0.9033   59.9903    0.9048
  0.840   60.0394    0.8502   59.9731    0.9047   59.9858    0.9036   60.0131    0.8485   60.1049    0.9176   60.1004    0.9191
  0.850   60.1508    0.8636   60.0843    0.9188   60.0970    0.9178   60.1245    0.8619   60.2167    0.9320   60.2121    0.9335
  0.860   60.2641    0.8771   60.1972    0.9332   60.2099    0.9321   60.2377    0.8753   60.3302    0.9466   60.3257    0.9481
  0.870   60.3791    0.8907   60.3118    0.9477   60.3246    0.9466   60.3527    0.8890   60.4456    0.9613   60.4410    0.9628
  0.880   60.4959    0.9045   60.4283    0.9623   60.4411    0.9612   60.4695    0.9028   60.5627    0.9761   60.5582    0.9777
  0.890   60.6145    0.9184   60.5466    0.9770   60.5594    0.9760   60.5880    0.9167   60.6817    0.9911   60.6772    0.9927
  0.900   60.7350    0.9325   60.6667    0.9920   60.6796    0.9909   60.7085    0.9307   60.8025    1.0063   60.7980    1.0079
  0.910   60.8573    0.9467   60.7887    1.0071   60.8016    1.0060   60.8308    0.9450   60.9252    1.0216   60.9207    1.0232
  0.920   60.9816    0.9611   60.9126    1.0223   60.9255    1.0212   60.9550    0.9593   61.0498    1.0371   61.0452    1.0387
  0.930   61.1077    0.9757   61.0383    1.0377   61.0513    1.0366   61.0810    0.9739   61.1763    1.0528   61.1717    1.0544
  0.940   61.2357    0.9904   61.1660    1.0533   61.1790    1.0522   61.2090    0.9886   61.3047    1.0686   61.3001    1.0703
  0.950   61.3657    1.0052   61.2956    1.0690   61.3087    1.0679   61.3390    1.0034   61.4351    1.0846   61.4305    1.0863
  0.960   61.4977    1.0202   61.4272    1.0850   61.4403    1.0838   61.4709    1.0184   61.5674    1.1008   61.5628    1.1025
  0.970   61.6316    1.0354   61.5607    1.1011   61.5739    1.0999   61.6048    1.0336   61.7018    1.1172   61.6972    1.1189
  0.980   61.7676    1.0508   61.6963    1.1174   61.7095    1.1162   61.7407    1.0490   61.8381    1.1337   61.8336    1.1354
  0.990   61.9056    1.0664   61.8339    1.1338   61.8471    1.1326   61.8787    1.0645   61.9765    1.1505   61.9720    1.1522
  1.000   62.0457    1.0821   61.9735    1.1505   61.9868    1.1493   62.0187    1.0803   62.1170    1.1674   62.1124    1.1692
  1.010   62.1878    1.0980   62.1153    1.1674   62.1286    1.1661   62.1608    1.0962   62.2596    1.1845   62.2550    1.1863
  1.020   62.3321    1.1141   62.2591    1.1844   62.2725    1.1832   62.3051    1.1123   62.4043    1.2019   62.3997    1.2037
  1.030   62.4785    1.1304   62.4051    1.2017   62.4185    1.2004   62.4514    1.1286   62.5512    1.2194   62.5466    1.2213
  1.040   62.6271    1.1469   62.5532    1.2192   62.5666    1.2179   62.6000    1.1451   62.7002    1.2372   62.6956    1.2390
  1.050   62.7779    1.1636   62.7035    1.2368   62.7170    1.2356   62.7507    1.1618   62.8514    1.2552   62.8468    1.2570
  1.060   62.9308    1.1805   62.8561    1.2547   62.8696    1.2535   62.9036    1.1787   63.0049    1.2734   63.0003    1.2752
  1.070   63.0861    1.1977   63.0108    1.2729   63.0244    1.2716   63.0588    1.1958   63.1606    1.2918   63.1560    1.2937
  1.080   63.2436    1.2150   63.1679    1.2912   63.1815    1.2899   63.2163    1.2132   63.3186    1.3105   63.3140    1.3124
  1.090   63.4035    1.2326   63.3272    1.3098   63.3409    1.3085   63.3761    1.2307   63.4789    1.3294   63.4743    1.3313
  1.100   63.5656    1.2503   63.4889    1.3286   63.5026    1.3273   63.5382    1.2485   63.6416    1.3485   63.6369    1.3504
  1.110   63.7302    1.2684   63.6529    1.3477   63.6667    1.3463   63.7027    1.2665   63.8066    1.3679   63.8020    1.3698
  1.120   63.8971    1.2866   63.8194    1.3670   63.8332    1.3656   63.8697    1.2848   63.9741    1.3875   63.9694    1.3895
  1.130   64.0665    1.3051   63.9882    1.3865   64.0021    1.3852   64.0390    1.3033   64.1440    1.4074   64.1393    1.4094
  1.140   64.2383    1.3238   64.1596    1.4063   64.1735    1.4050   64.2108    1.3220   64.3164    1.4276   64.3117    1.4296
  1.150   64.4127    1.3428   64.3334    1.4264   64.3473    1.4250   64.3851    1.3410   64.4913    1.4480   64.4866    1.4500
  1.160   64.5896    1.3621   64.5097    1.4468   64.5237    1.4454   64.5620    1.3603   64.6687    1.4687   64.6640    1.4708
  1.170   64.7690    1.3816   64.6886    1.4674   64.7027    1.4660   64.7414    1.3798   64.8487    1.4897   64.8440    1.4918
  1.180   64.9511    1.4014   64.8701    1.4883   64.8842    1.4869   64.9234    1.3996   65.0314    1.5110   65.0267    1.5130
  1.190   65.1358    1.4214   65.0542    1.5095   65.0684    1.5081   65.1081    1.4197   65.2167    1.5326   65.2120    1.5346
  1.200   65.3232    1.4418   65.2410    1.5310   65.2553    1.5295   65.2954    1.4400   65.4046    1.5545   65.4000    1.5565
  1.210   65.5134    1.4624   65.4306    1.5528   65.4449    1.5513   65.4855    1.4607   65.5954    1.5767   65.5907    1.5787
  1.220   65.7062    1.4833   65.6229    1.5749   65.6372    1.5734   65.6784    1.4816   65.7889    1.5992   65.7842    1.6012
  1.230   65.9019    1.5045   65.8179    1.5973   65.8323    1.5958   65.8740    1.5029   65.9852    1.6220   65.9805    1.6241
  1.240   66.1005    1.5261   66.0158    1.6200   66.0303    1.6186   66.0725    1.5244   66.1843    1.6451   66.1796    1.6472
  1.250   66.3019    1.5479   66.2166    1.6431   66.2311    1.6416   66.2739    1.5463   66.3864    1.6686   66.3817    1.6708
  1.260   66.5063    1.5701   66.4203    1.6665   66.4349    1.6650   66.4782    1.5685   66.5914    1.6925   66.5867    1.6946
  1.270   66.7136    1.5926   66.6270    1.6903   66.6416    1.6888   66.6855    1.5910   66.7994    1.7167   66.7947    1.7188
  1.280   66.9240    1.6154   66.8367    1.7144   66.8514    1.7129   66.8959    1.6139   67.0105    1.7412   67.0057    1.7434
  1.290   67.1374    1.6386   67.0494    1.7388   67.0642    1.7373   67.1093    1.6371   67.2246    1.7661   67.2199    1.7683
  1.300   67.3539    1.6622   67.2652    1.7637   67.2801    1.7622   67.3258    1.6607   67.4418    1.7915   67.4371    1.7936
  1.310   67.5736    1.6861   67.4842    1.7889   67.4991    1.7874   67.5455    1.6846   67.6623    1.8172   67.6575    1.8193
  1.320   67.7966    1.7104   67.7064    1.8145   67.7214    1.8130   67.7684    1.7089   67.8859    1.8432   67.8812    1.8454
  1.330   68.0228    1.7350   67.9319    1.8405   67.9469    1.8390   67.9945    1.7336   68.1129    1.8697   68.1081    1.8720
  1.340   68.2523    1.7601   68.1606    1.8670   68.1757    1.8654   68.2240    1.7587   68.3431    1.8967   68.3384    1.8989
  1.350   68.4852    1.7855   68.3928    1.8938   68.4079    1.8922   68.4569    1.7842   68.5768    1.9240   68.5721    1.9263
  1.360   68.7215    1.8114   68.6283    1.9211   68.6435    1.9195   68.6932    1.8101   68.8139    1.9518   68.8092    1.9540
  1.370   68.9614    1.8377   68.8673    1.9488   68.8826    1.9472   68.9330    1.8364   69.0545    1.9800   69.0498    1.9823
  1.380   69.2047    1.8644   69.1099    1.9769   69.1253    1.9753   69.1763    1.8632   69.2987    2.0087   69.2940    2.0110
  1.390   69.4517    1.8915   69.3560    2.0055   69.3715    2.0039   69.4233    1.8904   69.5465    2.0379   69.5418    2.0402
  1.400   69.7023    1.9191   69.6058    2.0346   69.6213    2.0330   69.6739    1.9180   69.7980    2.0676   69.7932    2.0698
  1.410   69.9567    1.9472   69.8593    2.0642   69.8749    2.0625   69.9283    1.9462   70.0532    2.0977   70.0485    2.1000
  1.420   70.2149    1.9757   70.1166    2.0942   70.1323    2.0926   70.1864    1.9748   70.3122    2.1284   70.3075    2.1306
  1.430   70.4769    2.0047   70.3778    2.1248   70.3935    2.1232   70.4484    2.0038   70.5752    2.1595   70.5704    2.1618
  1.440   70.7429    2.0343   70.6428    2.1559   70.6586    2.1542   70.7144    2.0334   70.8420    2.1912   70.8373    2.1935
  1.450   71.0128    2.0643   70.9118    2.1875   70.9277    2.1859   70.9843    2.0635   71.1129    2.2235   71.1082    2.2258
  1.460   71.2869    2.0949   71.1849    2.2197   71.2009    2.2180   71.2584    2.0942   71.3879    2.2563   71.3831    2.2586
  1.470   71.5650    2.1260   71.4621    2.2524   71.4782    2.2508   71.5365    2.1253   71.6670    2.2897   71.6623    2.2920
  1.480   71.8474    2.1576   71.7435    2.2858   71.7597    2.2841   71.8189    2.1571   71.9504    2.3237   71.9456    2.3260
  1.490   72.1341    2.1898   72.0292    2.3197   72.0454    2.3180   72.1056    2.1894   72.2381    2.3583   72.2333    2.3606
  1.500   72.4252    2.2226   72.3192    2.3542   72.3355    2.3525   72.3967    2.2223   72.5301    2.3935   72.5254    2.3958
  1.510   72.7207    2.2560   72.6137    2.3893   72.6301    2.3876   72.6922    2.2557   72.8267    2.4293   72.8219    2.4317
  1.520   73.0208    2.2900   72.9127    2.4251   72.9292    2.4234   72.9923    2.2898   73.1278    2.4659   73.1231    2.4682
  1.530   73.3255    2.3247   73.2163    2.4615   73.2329    2.4598   73.2970    2.3246   73.4336    2.5030   73.4288    2.5054
  1.540   73.6349    2.3600   73.5246    2.4986   73.5413    2.4969   73.6064    2.3600   73.7440    2.5409   73.7393    2.5433
  1.550   73.9491    2.3959   73.8377    2.5364   73.8544    2.5347   73.9206    2.3960   74.0594    2.5795   74.0546    2.5818
  1.560   74.2682    2.4326   74.1556    2.5749   74.1725    2.5732   74.2397    2.4328   74.3796    2.6188   74.3749    2.6212
  1.570   74.5923    2.4699   74.4785    2.6142   74.4955    2.6124   74.5638    2.4702   74.7049    2.6589   74.7001    2.6612
  1.580   74.9215    2.5080   74.8065    2.6541   74.8235    2.6524   74.8930    2.5084   75.0352    2.6997   75.0305    2.7021
  1.590   75.2558    2.5468   75.1397    2.6949   75.1568    2.6931   75.2275    2.5473   75.3708    2.7413   75.3661    2.7437
  1.600   75.5955    2.5863   75.4781    2.7365   75.4953    2.7347   75.5672    2.5870   75.7117    2.7838   75.7070    2.7861
  1.610   75.9406    2.6267   75.8219    2.7788   75.8392    2.7771   75.9123    2.6275   76.0581    2.8271   76.0533    2.8294
  1.620   76.2912    2.6678   76.1712    2.8220   76.1886    2.8203   76.2629    2.6688   76.4099    2.8712   76.4052    2.8735
  1.630   76.6474    2.7098   76.5260    2.8661   76.5436    2.8643   76.6192    2.7109   76.7675    2.9162   76.7628    2.9186
  1.640   77.0094    2.7526   76.8866    2.9111   76.9043    2.9093   76.9812    2.7539   77.1307    2.9621   77.1261    2.9645
  1.650   77.3772    2.7963   77.2531    2.9569   77.2708    2.9551   77.3491    2.7977   77.4999    3.0090   77.4953    3.0114
  1.660   77.7510    2.8409   77.6254    3.0037   77.6433    3.0020   77.7230    2.8425   77.8751    3.0569   77.8705    3.0592
  1.670   78.1309    2.8865   78.0039    3.0515   78.0219    3.0497   78.1030    2.8882   78.2565    3.1057   78.2518    3.1080
  1.680   78.5171    2.9330   78.3886    3.1003   78.4067    3.0985   78.4892    2.9349   78.6441    3.1555   78.6394    3.1578
  1.690   78.9096    2.9805   78.7796    3.1501   78.7978    3.1483   78.8818    2.9825   79.0381    3.2064   79.0335    3.2087
  1.700   79.3087    3.0289   79.1771    3.2009   79.1954    3.1991   79.2810    3.0312   79.4387    3.2584   79.4341    3.2607
  1.710   79.7144    3.0785   79.5813    3.2529   79.5997    3.2511   79.6868    3.0810   79.8459    3.3115   79.8413    3.3138
  1.720   80.1270    3.1291   79.9922    3.3059   80.0107    3.3041   80.0994    3.1318   80.2601    3.3658   80.2555    3.3681
  1.730   80.5464    3.1808   80.4100    3.3602   80.4287    3.3584   80.5191    3.1837   80.6812    3.4213   80.6766    3.4235
  1.740   80.9731    3.2337   80.8349    3.4156   80.8537    3.4138   80.9458    3.2368   81.1094    3.4779   81.1048    3.4802
  1.750   81.4069    3.2878   81.2670    3.4722   81.2860    3.4704   81.3798    3.2911   81.5450    3.5359   81.5404    3.5381
  1.760   81.8483    3.3430   81.7066    3.5301   81.7256    3.5283   81.8213    3.3466   81.9880    3.5951   81.9835    3.5973
  1.770   82.2972    3.3996   82.1537    3.5893   82.1729    3.5875   82.2703    3.4034   82.4387    3.6557   82.4342    3.6578
  1.780   82.7540    3.4574   82.6086    3.6498   82.6279    3.6481   82.7272    3.4615   82.8972    3.7176   82.8928    3.7198
  1.790   83.2187    3.5166   83.0714    3.7118   83.0908    3.7100   83.1921    3.5210   83.3638    3.7810   83.3593    3.7832
  1.800   83.6916    3.5771   83.5423    3.7751   83.5619    3.7734   83.6652    3.5818   83.8386    3.8459   83.8341    3.8480
  1.810   84.1728    3.6391   84.0216    3.8400   84.0413    3.8382   84.1466    3.6441   84.3217    3.9123   84.3173    3.9144
  1.820   84.6626    3.7025   84.5094    3.9064   84.5292    3.9046   84.6366    3.7078   84.8135    3.9802   84.8091    3.9823
  1.830   85.1612    3.7675   85.0059    3.9743   85.0258    3.9726   85.1354    3.7731   85.3141    4.0498   85.3097    4.0519
  1.840   85.6688    3.8341   85.5113    4.0439   85.5314    4.0422   85.6432    3.8400   85.8237    4.1211   85.8194    4.1231
  1.850   86.1856    3.9022   86.0259    4.1152   86.0462    4.1135   86.1603    3.9086   86.3426    4.1941   86.3383    4.1961
  1.860   86.7119    3.9721   86.5499    4.1883   86.5703    4.1866   86.6868    3.9788   86.8710    4.2689   86.8668    4.2709
  1.870   87.2478    4.0437   87.0835    4.2631   87.1040    4.2614   87.2229    4.0508   87.4092    4.3456   87.4049    4.3475
  1.880   87.7936    4.1171   87.6269    4.3398   87.6477    4.3381   87.7691    4.1246   87.9573    4.4242   87.9531    4.4261
  1.890   88.3497    4.1924   88.1805    4.4184   88.2014    4.4168   88.3254    4.2002   88.5156    4.5048   88.5114    4.5066
  1.900   88.9162    4.2696   88.7445    4.4991   88.7656    4.4974   88.8922    4.2779   89.0845    4.5874   89.0803    4.5892
  1.910   89.4934    4.3488   89.3192    4.5818   89.3404    4.5802   89.4698    4.3575   89.6641    4.6722   89.6600    4.6740
  1.920   90.0816    4.4300   89.9048    4.6667   89.9262    4.6650   90.0583    4.4393   90.2548    4.7592   90.2508    4.7609
  1.930   90.6812    4.5134   90.5016    4.7537   90.5232    4.7521   90.6582    4.5232   90.8569    4.8485   90.8529    4.8501
  1.940   91.2923    4.5991   91.1100    4.8431   91.1317    4.8415   91.2697    4.6093   91.4707    4.9401   91.4667    4.9417
  1.950   91.9154    4.6870   91.7302    4.9349   91.7521    4.9333   91.8932    4.6978   92.0964    5.0343   92.0925    5.0358
  1.960   92.5507    4.7774   92.3626    5.0291   92.3847    5.0276   92.5290    4.7887   92.7345    5.1309   92.7306    5.1324
  1.970   93.1987    4.8702   93.0075    5.1260   93.0298    5.1244   93.1774    4.8821   93.3852    5.2303   93.3814    5.2317
  1.980   93.8596    4.9656   93.6653    5.2254   93.6878    5.2239   93.8387    4.9781   94.0490    5.3323   94.0453    5.3337
  1.990   94.5338    5.0637   94.3364    5.3277   94.3590    5.3262   94.5134    5.0769   94.7261    5.4373   94.7225    5.4386
  2.000   95.2217    5.1645   95.0210    5.4328   95.0438    5.4314   95.2018    5.1784   95.4171    5.5452   95.4135    5.5464
  2.010   95.9237    5.2683   95.7196    5.5409   95.7427    5.5395   95.9044    5.2828   96.1222    5.6562   96.1187    5.6574
  2.020   96.6402    5.3750   96.4327    5.6522   96.4560    5.6508   96.6215    5.3903   96.8419    5.7704   96.8385    5.7715
  2.030   97.3717    5.4849   97.1606    5.7666   97.1841    5.7653   97.3536    5.5009   97.5767    5.8879   97.5733    5.8889
  2.040   98.1186    5.5981   97.9038    5.8844   97.9275    5.8831   98.1011    5.6149   98.3269    6.0089   98.3236    6.0099
  2.050   98.8813    5.7146   98.6627    6.0057   98.6866    6.0045   98.8644    5.7322   99.0931    6.1335   99.0899    6.1344
  2.060   99.6603    5.8346   99.4379    6.1307   99.4620    6.1295   99.6442    5.8531   99.8757    6.2619   99.8726    6.2627
  2.070  100.4562    5.9583  100.2297    6.2594  100.2541    6.2582  100.4408    5.9777  100.6752    6.3942  100.6722    6.3949
  2.080  101.2695    6.0858  101.0389    6.3921  101.0634    6.3910  101.2549    6.1062  101.4922    6.5306  101.4893    6.5311
  2.090  102.1007    6.2174  101.8658    6.5289  101.8906    6.5278  102.0869    6.2387  102.3273    6.6712  102.3245    6.6716
  2.100  102.9504    6.3530  102.7110    6.6700  102.7361    6.6690  102.9374    6.3754  103.1809    6.8162  103.1782    6.8166
  2.110  103.8191    6.4930  103.5752    6.8156  103.6005    6.8146  103.8071    6.5165  104.0537    6.9659  104.0511    6.9662
  2.120  104.7076    6.6376  104.4590    6.9658  104.4845    6.9649  104.6965    6.6622  104.9464    7.1204  104.9439    7.1206
  2.130  105.6164    6.7869  105.3630    7.1209  105.3888    7.1200  105.6063    6.8127  105.8595    7.2800  105.8572    7.2800
  2.140  106.5463    6.9411  106.2878    7.2811  106.3139    7.2803  106.5372    6.9681  106.7938    7.4449  106.7916    7.4447
  2.150  107.4979    7.1005  107.2342    7.4466  107.2605    7.4459  107.4899    7.1288  107.7500    7.6152  107.7479    7.6149
  2.160  108.4720    7.2652  108.2030    7.6177  108.2296    7.6171  108.4651    7.2950  108.7288    7.7913  108.7269    7.7909
  2.170  109.4693    7.4357  109.1948    7.7947  109.2216    7.7941  109.4637    7.4669  109.7310    7.9735  109.7292    7.9729
  2.180  110.4908    7.6121  110.2105    7.9777  110.2376    7.9772  110.4864    7.6448  110.7574    8.1620  110.7558    8.1612
  2.190  111.5371    7.7947  111.2509    8.1671  111.2783    8.1667  111.5341    7.8290  111.8089    8.3571  111.8075    8.3562
  2.200  112.6093    7.9837  112.3169    8.3633  112.3447    8.3629  112.6077    8.0198  112.8864    8.5591  112.8852    8.5580
  2.210  113.7083    8.1797  113.4095    8.5664  113.4375    8.5662  113.7082    8.2174  113.9908    8.7685  113.9898    8.7672
  2.220  114.8350    8.3827  114.5295    8.7769  114.5579    8.7768  114.8364    8.4224  115.1231    8.9854  115.1223    8.9840
  2.230  115.9904    8.5933  115.6781    8.9952  115.7069    8.9951  115.9935    8.6349  116.2843    9.2104  116.2838    9.2088
  2.240  117.1757    8.8118  116.8563    9.2216  116.8854    9.2216  117.1805    8.8555  117.4756    9.4439  117.4753    9.4420
  2.250  118.3920    9.0387  118.0652    9.4565  118.0946    9.4567  118.3987    9.0845  118.6981    9.6862  118.6981    9.6841
  2.260  119.6405    9.2742  119.3060    9.7004  119.3358    9.7007  119.6491    9.3223  119.9530    9.9378  119.9532    9.9355
  2.270  120.9224    9.5190  120.5800    9.9538  120.6101    9.9542  120.9330    9.5695  121.2415   10.1993  121.2420   10.1967
  2.280  122.2391    9.7735  121.8884   10.2171  121.9188   10.2177  122.2519    9.8265  122.5650   10.4711  122.5658   10.4682
  2.290  123.5920   10.0382  123.2326   10.4909  123.2634   10.4917  123.6070   10.0939  123.9249   10.7538  123.9260   10.7507
  2.300  124.9825   10.3137  124.6141   10.7759  124.6453   10.7767  124.9998   10.3722  125.3226   11.0480  125.3241   11.0446
  2.310  126.4121   10.6006  126.0344   11.0725  126.0661   11.0735  126.4320   10.6621  126.7598   11.3544  126.7616   11.3507
  2.320  127.8827   10.8995  127.4952   11.3814  127.5272   11.3826  127.9052   10.9642  128.2381   11.6736  128.2402   11.6696
  2.330  129.3957   11.2111  128.9980   11.7034  129.0306   11.7048  129.4210   11.2792  129.7592   12.0064  129.7617   12.0021
  2.340  130.9532   11.5363  130.5449   12.0392  130.5778   12.0408  130.9814   11.6078  131.3249   12.3536  131.3279   12.3490
  2.350  132.5570   11.8757  132.1376   12.3897  132.1710   12.3915  132.5883   11.9510  132.9373   12.7160  132.9408   12.7110
  2.360  134.2091   12.2302  133.7781   12.7556  133.8120   12.7576  134.2437   12.3095  134.5984   13.0946  134.6023   13.0892
  2.370  135.9118   12.6008  135.4687   13.1380  135.5031   13.1403  135.9499   12.6843  136.3103   13.4903  136.3147   13.4845
  2.380  137.6674   12.9884  137.2116   13.5379  137.2465   13.5403  137.7091   13.0764  138.0754   13.9042  138.0804   13.8979
  2.390  139.4783   13.3942  139.0092   13.9562  139.0446   13.9590  139.5238   13.4869  139.8962   14.3374  139.9017   14.3307
  2.400  141.3470   13.8192  140.8641   14.3944  140.8999   14.3974  141.3967   13.9170  141.7752   14.7912  141.7813   14.7841
  2.410  143.2765   14.2648  142.7789   14.8535  142.8153   14.8568  143.3305   14.3680  143.7152   15.2669  143.7220   15.2593
  2.420  145.2695   14.7323  144.7566   15.3350  144.7936   15.3386  145.3281   14.8412  145.7193   15.7660  145.7267   15.7578
  2.430  147.3292   15.2231  146.8002   15.8404  146.8378   15.8443  147.3927   15.3382  147.7904   16.2900  147.7986   16.2813
  2.440  149.4591   15.7390  148.9132   16.3713  148.9513   16.3756  149.5277   15.8605  149.9321   16.8406  149.9411   16.8314
  2.450  151.6626   16.2815  151.0988   16.9294  151.1376   16.9341  151.7366   16.4100  152.1479   17.4198  152.1577   17.4100
  2.460  153.9435   16.8526  153.3610   17.5168  153.4004   17.5219  154.0233   16.9886  154.4415   18.0295  154.4522   18.0191
  2.470  156.3059   17.4544  155.7036   18.1355  155.7437   18.1410  156.3918   17.5984  156.8172   18.6720  156.8289   18.6608
  2.480  158.7542   18.0892  158.1310   18.7877  158.1718   18.7937  158.8467   18.2417  159.2792   19.3496  159.2919   19.3377
  2.490  161.2931   18.7593  160.6478   19.4760  160.6893   19.4825  161.3924   18.9210  161.8323   20.0649  161.8461   20.0524
  2.500  163.9275   19.4676  163.2589   20.2032  163.3011   20.2101  164.0342   19.6390  164.4814   20.8210  164.4964   20.8076
  2.510  166.6629   20.2169  165.9695   20.9721  166.0125   20.9796  166.7773   20.3989  167.2321   21.6209  167.2484   21.6067
  2.520  169.5049   21.0105  168.7853   21.7862  168.8292   21.7943  169.6277   21.2039  170.0900   22.4681  170.1077   22.4530
  2.530  172.4600   21.8521  171.7125   22.6491  171.7572   22.6578  172.5916   22.0577  173.0615   23.3665  173.0807   23.3505
  2.540  175.5347   22.7455  174.7577   23.5647  174.8032   23.5741  175.6757   22.9643  176.1533   24.3202  176.1741   24.3033
  2.550  178.7363   23.6952  177.9278   24.5375  177.9743   24.5476  178.8873   23.9283  179.3726   25.3341  179.3951   25.3162
  2.560  182.0728   24.7061  181.2307   25.5724  181.2781   25.5833  182.2344   24.9545  182.7273   26.4132  182.7517   26.3942
  2.570  185.5524   25.7834  184.6745   26.6748  184.7229   26.6866  185.7254   26.0486  186.2258   27.5634  186.2523   27.5432
  2.580  189.1845   26.9333  188.2684   27.8508  188.3178   27.8635  189.3696   27.2166  189.8774   28.7911  189.9061   28.7697
  2.590  192.9790   28.1624  192.0219   29.1071  192.0724   29.1208  193.1771   28.4654  193.6921   30.1033  193.7232   30.0806
  2.600  196.9467   29.4781  195.9457   30.4513  195.9973   30.4661  197.1586   29.8027  197.6805   31.5081  197.7143   31.4841
  2.610  201.0995   30.8889  200.0513   31.8918  200.1041   31.9077  201.3261   31.2369  201.8546   33.0145  201.8912   32.9890
  2.620  205.4501   32.4042  204.3513   33.4380  204.4052   33.4552  205.6925   32.7778  206.2271   34.6325  206.2668   34.6055
  2.630  210.0126   34.0346  208.8592   35.1007  208.9144   35.1193  210.2719   34.4362  210.8120   36.3734  210.8551   36.3449
  2.640  214.8024   35.7921  213.5899   36.8917  213.6465   36.9118  215.0797   36.2244  215.6245   38.2502  215.6714   38.2199
  2.650  219.8362   37.6902  218.5599   38.8249  218.6178   38.8466  220.1328   38.1563  220.6812   40.2772  220.7322   40.2452
  2.660  225.1323   39.7444  223.7869   40.9155  223.8463   40.9390  225.4495   40.2477  226.0005   42.4710  226.0561   42.4371
  2.670  230.7111   41.9722  229.2905   43.1813  229.3515   43.2067  231.0503   42.5167  231.6022   44.8503  231.6629   44.8145
  2.680  236.5946   44.3938  235.0923   45.6423  235.1548   45.6699  236.9574   44.9839  237.5085   47.4368  237.5746   47.3990
  2.690  242.8074   47.0324  241.2158   48.3217  241.2800   48.3517  243.1953   47.6730  243.7432   50.2551  243.8155   50.2151
  2.700  249.3763   49.9144  247.6871   51.2460  247.7531   51.2786  249.7911   50.6113  250.3329   53.3337  250.4121   53.2915
  2.710  256.3312   53.0708  254.5349   54.4460  254.6027   54.4814  256.7745   53.8305  257.3067   56.7054  257.3935   56.6609
  2.720  263.7047   56.5373  261.7908   57.9571  261.8604   57.9957  264.1784   57.3673  264.6967   60.4085  264.7921   60.3616
  2.730  271.5332   60.3555  269.4896   61.8210  269.5612   61.8632  272.0392   61.2645  272.5382   64.4875  272.6432   64.4383
  2.740  279.8569   64.5745  277.6698   66.0862  277.7435   66.1322  280.3969   65.5725  280.8700   68.9947  280.9857   68.9431
  2.750  288.7200   69.2517  286.3738   70.8096  286.4496   70.8601  289.2958   70.3502  289.7347   73.9913  289.8626   73.9374
  2.760  298.1715   74.4551  295.6484   76.0587  295.7263   76.1141  298.7846   75.6677  299.1791   79.5500  299.3207   79.4938
  2.770  308.2654   80.2655  305.5449   81.9134  305.6250   81.9743  308.9170   81.6082  309.2543   85.7569  309.4116   85.6987
  2.780  319.0609   86.7798  316.1194   88.4690  316.2017   88.5361  319.7517   88.2711  320.0158   92.7149  320.1909   92.6551
  2.790  330.6229   94.1139  327.4331   95.8400  327.5177   95.9140  331.3528   95.7758  331.5234  100.5475  331.7188  100.4865
  2.800  343.0217  102.4082  339.5521  104.1641  339.6389  104.2461  343.7891  104.2669  343.8408  109.4037  344.0595  109.3423
  2.810  356.3325  111.8333  352.5466  113.6087  352.6353  113.6998  357.1340  113.9197  357.0343  119.4643  357.2799  119.4036
  2.820  370.6343  122.5979  366.4895  124.3779  366.5800  124.4794  371.4639  124.9491  371.1710  130.9499  371.4477  130.8915
  2.830  386.0075  134.9585  381.4546  136.7221  381.5464  136.8354  386.8548  137.6190  386.3153  144.1311  386.6281  144.0773
  2.840  402.5295  149.2327  397.5111  150.9504  397.6038  151.0772  403.3783  152.2558  402.5226  159.3415  402.8774  159.2956
  2.850  420.2674  165.8158  414.7171  167.4460  414.8097  167.5885  421.0925  169.2655  419.8301  176.9943  420.2337  176.9609
  2.860  439.2651  185.2019  433.1065  186.6869  433.1978  186.8474  440.0283  189.1551  438.2403  197.6032  438.7010  197.5887
  2.870  459.5226  208.0115  452.6692  209.2711  452.7575  209.4523  460.1671  212.5598  457.6964  221.8080  458.2234  221.8217
  2.880  480.9625  235.0251  473.3179  235.9476  473.4007  236.1527  481.4033  240.2765  478.0415  250.4051  478.6456  250.4600
  2.890  503.3742  267.2234  494.8359  267.6542  494.9095  267.8865  503.4861  273.3021  498.9557  284.3813  499.6484  284.4957
  2.900  526.3265  305.8308  516.7926  305.5564  516.8522  305.8197  525.9248  312.8742  519.8571  324.9442  520.6499  325.1442
  2.910  549.0269  352.3533  538.4120  351.0814  538.4509  351.3794  547.8426  360.5006  539.7504  373.5372  540.6525  373.8593
  2.920  570.1045  408.5871  558.3688  405.9233  558.3780  406.2591  567.7507  417.9537  557.0018  431.8066  558.0166  432.3014
  2.930  587.2860  476.5467  574.4869  471.9730  574.4544  472.3486  583.2208  487.1712  569.0248  501.4619  570.1414  502.1973
  2.940  596.9472  558.2108  583.3233  551.0790  583.2339  551.4938  590.4460  569.9587  571.8864  583.9203  573.0670  584.9825
  2.950  593.5833  654.9058  579.6793  644.4738  579.5144  644.9230  583.7578  667.3124  559.9349  679.5733  561.0950  681.0605
  2.960  569.4170  766.0733  556.2369  751.6344  555.9747  752.1071  555.3526  778.1356  525.7418  786.5061  526.7261  788.5055
  2.970  514.7287  887.2319  503.8536  868.4016  503.4702  868.8769  495.8348  897.2401  460.9516  898.7049  461.5200  901.2422
  2.980  419.9706 1007.4852  413.4841  984.6706  412.9561  985.1124  396.5625 1013.1249  358.8224 1004.4314  358.6760 1007.3946
  2.990  280.6706 1108.3201  280.6520 1083.2236  279.9680 1083.5737  254.5140 1107.3332  218.6455 1086.4970  217.5289 1089.5741
  3.000  104.0612 1167.0046  111.5587 1142.6926  110.7417 1142.8751   78.2561 1158.3389   50.2143 1126.5385   48.0761 1129.2547
  3.010  -87.9043 1166.3629  -73.9002 1146.3380  -74.7739 1146.2910 -110.0834 1150.9894 -125.8509 1113.0805 -128.7574 1114.9803
  3.020 -265.3975 1105.5038 -247.8943 1092.0219 -248.7176 1091.7437 -281.9990 1085.9755 -284.8969 1048.3902 -288.1019 1049.2550
  3.030 -404.6836 1001.1180 -387.2206  994.1244 -387.9133  993.6795 -415.6326  980.1440 -408.6175  947.7790 -411.6592  947.6923
  3.040 -497.3110  877.5362 -482.3083  875.1208 -482.8553  874.5953 -503.7392  856.8049 -490.9999  831.5894 -493.5937  830.8197
  3.050 -548.5649  755.3986 -536.6664  755.0797 -537.1061  754.5295 -551.7042  735.3166 -536.6446  716.8794 -538.7048  715.7196
  3.060 -570.6622  646.5018 -560.9565  646.3545 -561.3420  645.7769 -570.9447  626.6769 -555.5081  613.7384 -557.0798  612.4080
  3.070 -576.7078  553.2483 -567.4173  552.8018 -567.7572  552.1357 -573.3663  533.6104 -558.3833  525.0920 -559.5557  523.7070
  3.080 -574.4136  470.3522 -564.5189  470.9555 -564.7155  470.1614 -566.5622  452.5342 -552.6902  447.8940 -553.5136  446.5038
  3.090 -562.2731  393.9524 -552.8959  396.8327 -552.8484  396.0220 -551.2026  380.2896 -539.3677  378.7263 -539.8665  377.4082
  3.100 -539.6163  327.9067 -532.1354  332.4218 -531.9011  331.7334 -527.9033  318.7299 -518.4529  318.9504 -518.7087  317.7790
  3.110 -511.5376  274.6411 -506.1307  279.6411 -505.8174  279.1015 -500.7120  268.7895 -493.3165  269.8177 -493.4209  268.8034
  3.120 -482.4936  232.3950 -478.7496  237.1996 -478.4198  236.7782 -472.9832  228.7006 -467.1822  230.0381 -467.1934  229.1605
  3.130 -454.5075  198.5465 -451.9725  202.8812 -451.6514  202.5437 -446.2770  196.2234 -441.6973  197.6369 -441.6479  196.8737
  3.140 -428.2706  171.0040 -426.5906  174.7976 -426.2857  174.5184 -421.1594  169.5681 -417.5257  170.9456 -417.4356  170.2784
  3.150 -403.9371  148.2695 -402.8590  151.5370 -402.5711  151.2986 -397.7749  147.4216 -394.8848  148.7081 -394.7668  148.1225
  3.160 -381.4573  129.2700 -380.8040  132.0588 -380.5313  131.8492 -376.0953  128.8201 -373.7969  129.9895 -373.6599  129.4741
  3.170 -360.7057  113.2196 -360.3534  115.5860 -360.0931  115.3967 -356.0210  113.0430 -354.1983  114.0847 -354.0486  113.6301
  3.180 -341.5320   99.5286 -341.3935  101.5279 -341.1426  101.3529 -337.4249   99.5410 -335.9877  100.4530 -335.8299  100.0518
  3.190 -323.7822   87.7456 -323.7957   89.4285 -323.5512   89.2633 -320.1719   87.8885 -319.0492   88.6737 -318.8868   88.3195
  3.200 -307.3077   77.5192 -307.4291   78.9305 -307.1880   78.7716 -304.1288   77.7510 -303.2636   78.4147 -303.0992   78.1026
  3.210 -291.9686   68.5716 -292.1663   69.7507 -291.9258   69.5954 -289.1676   68.8622 -288.5138   69.4113 -288.3497   69.1370
  3.220 -277.6341   60.6807 -277.8857   61.6616 -277.6428   61.5076 -275.1675   61.0080 -274.6869   61.4498 -274.5250   61.2097
  3.230 -264.1819   53.6662 -264.4717   54.4788 -264.2230   54.3243 -262.0138   54.0139 -261.6743   54.3559 -261.5166   54.1473
  3.240 -251.4957   47.3803 -251.8131   48.0511 -251.5551   47.8941 -249.5969   47.7365 -249.3710   47.9864 -249.2195   47.8065
  3.250 -239.4624   41.7003 -239.8012   42.2529 -239.5295   42.0919 -237.8094   42.0563 -237.6726   42.2225 -237.5298   42.0688
  3.260 -227.9671   36.5237 -228.3250   36.9802 -228.0341   36.8133 -226.5421   36.8739 -226.4719   36.9657 -226.3405   36.8351
  3.270 -216.8862   31.7667 -217.2657   32.1478 -216.9481   31.9733 -215.6779   32.1076 -215.6533   32.1364 -215.5363   32.0248
  3.280 -206.0787   27.3679 -206.4883   27.6928 -206.1330   27.5098 -205.0839   27.6964 -205.0851   27.6772 -204.9848   27.5788
  3.290 -195.3785   23.3019 -195.8349   23.5865 -195.4254   23.3971 -194.6035   23.6108 -194.6129   23.5642 -194.5294   23.4713
  3.300 -184.5976   19.6012 -185.1259   19.8537 -184.6406   19.6682 -184.0563   19.8720 -184.0611   19.8262 -183.9903   19.7309
  3.310 -173.5453   16.3719 -174.1759   16.5901 -173.5921   16.4320 -173.2500   16.5693 -173.2465   16.5602 -173.1799   16.4584
  3.320 -162.0375   13.7941 -162.8049   13.9666 -162.1061   13.8731 -161.9869   13.8700 -161.9836   13.9395 -161.9127   13.8339
  3.330 -149.8768   12.1492 -150.8286   12.2538 -150.0071   12.2743 -150.0524   12.0545 -150.0716   12.2520 -149.9947   12.1501
  3.340 -136.8625   11.9329 -138.0690   11.9149 -137.1290   12.1164 -137.2336   11.6251 -137.3239   12.0158 -137.2483   11.9218
  3.350 -122.9512   14.0298 -124.4939   13.7564 -123.4694   14.2344 -123.4837   13.4756 -123.7555   14.1382 -123.6925   14.0431
  3.360 -108.7097   19.8104 -110.6079   19.0139 -109.6096   19.8842 -109.3779   18.9759 -110.0615   19.9527 -110.0115   19.8288
  3.370  -96.1289   30.7000  -98.1560   28.9969  -97.4251   30.3187  -96.9073   29.5125  -98.3734   30.6550  -98.2981   30.4686
  3.380  -89.0349   46.4299  -90.5362   43.6251  -90.3914   45.2340  -89.7976   44.7674  -92.3508   45.5051  -92.1662   45.2726
  3.390  -90.7818   62.8072  -91.0041   59.4036  -91.5547   60.8633  -91.2436   60.7041  -94.5678   60.1594  -94.2281   59.9935
  3.400  -99.8214   73.7047  -98.7356   70.6816  -99.6915   71.6323  -99.8617   71.4705 -102.8871   69.3138 -102.4746   69.3278
  3.410 -110.5258   76.9032 -108.8034   74.7796 -109.7852   75.2306 -110.3462   74.7391 -112.1942   71.6097 -111.8390   71.8022
  3.420 -118.7589   74.7608 -116.9952   73.4185 -117.8373   73.5605 -118.5524   72.5844 -119.1356   69.3606 -118.9064   69.6562
  3.430 -123.6522   70.4031 -122.0762   69.5400 -122.7779   69.5114 -123.4206   68.0454 -123.1131   65.2574 -123.0168   65.5844
  3.440 -125.9712   65.7375 -124.5948   65.1399 -125.1837   64.9866 -125.5758   63.1093 -124.8195   60.9160 -124.8391   61.2271
  3.450 -126.7540   61.5353 -125.5406   61.1031 -126.0015   60.8335 -126.0341   58.6855 -125.1620   57.0012 -125.2753   57.2646
  3.460 -126.8438   57.9064 -125.7807   57.5824 -126.0605   57.2447 -125.7313   54.9639 -124.8861   53.5971 -125.0661   53.7881
  3.470 -126.7921   54.5859 -125.8546   54.2935 -125.9516   54.0075 -125.2919   51.6303 -124.4442   50.4473 -124.6538   50.5514
  3.480 -126.7515   51.0969 -125.8435   50.8006 -125.8779   50.6431 -124.8094   48.1840 -123.9023   47.1901 -124.1004   47.2138
  3.490 -126.3768   47.1053 -125.4347   46.8894 -125.5130   46.7888 -123.9448   44.4115 -123.0136   43.6623 -123.1731   43.6334
  3.500 -125.2020   42.8121 -124.2924   42.7536 -124.3901   42.6230 -122.3988   40.5381 -121.5326   40.0278 -121.6501   39.9771
  3.510 -123.1611   38.7030 -122.3713   38.7743 -122.4325   38.6130 -120.1934   36.9136 -119.4504   36.5790 -119.5363   36.5251
  3.520 -120.5155   35.0876 -119.8716   35.2200 -119.8827   35.0614 -117.5464   33.7332 -116.9369   33.5067 -117.0025   33.4564
  3.530 -117.5575   32.0297 -117.0426   32.1724 -117.0174   32.0370 -114.6778   31.0244 -114.1868   30.8588 -114.2397   30.8130
  3.540 -114.4878   29.4702 -114.0748   29.5980 -114.0299   29.4900 -111.7376   28.7330 -111.3440   28.6007 -111.3882   28.5589
  3.550 -111.4195   27.3191 -111.0849   27.4228 -111.0316   27.3386 -108.8108   26.7853 -108.4954   26.6717 -108.5333   26.6333
  3.560 -108.4096   25.4937 -108.1360   25.5713 -108.0804   25.5055 -105.9407   25.1146 -105.6882   25.0119 -105.7211   24.9767
  3.570 -105.4836   23.9275 -105.2588   23.9801 -105.2036   23.9278 -103.1470   23.6669 -102.9454   23.5715 -102.9744   23.5393
  3.580 -102.6509   22.5697 -102.4662   22.5994 -102.4123   22.5570 -100.4369   22.4010 -100.2770   22.3111 -100.3032   22.2819
  3.590  -99.9127   21.3820  -99.7616   21.3912  -99.7092   21.3560  -97.8111   21.2853  -97.6859   21.2004  -97.7101   21.1741
  3.600  -97.2661   20.3357  -97.1438   20.3264  -97.0928   20.2967  -95.2673   20.2959  -95.1713   20.2160  -95.1941   20.1922
  3.610  -94.7065   19.4087  -94.6095   19.3831  -94.5597   19.3574  -92.8019   19.4143  -92.7305   19.3400  -92.7526   19.3184
  3.620  -92.2288   18.5841  -92.1544   18.5441  -92.1054   18.5215  -90.4106   18.6263  -90.3603   18.5581  -90.3819   18.5384
  3.630  -89.8278   17.8487  -89.7738   17.7962  -89.7255   17.7759  -88.0891   17.9207  -88.0570   17.8593  -88.0783   17.8413
  3.640  -87.4984   17.1923  -87.4633   17.1289  -87.4155   17.1104  -85.8333   17.2884  -85.8170   17.2348  -85.8381   17.2181
  3.650  -85.2361   16.6066  -85.2187   16.5338  -85.1711   16.5166  -83.6393   16.7224  -83.6367   16.6775  -83.6578   16.6620
  3.660  -83.0365   16.0851  -83.0361   16.0043  -82.9886   15.9880  -81.5036   16.2169  -81.5130   16.1817  -81.5341   16.1673
  3.670  -80.8960   15.6225  -80.9119   15.5351  -80.8643   15.5194  -79.4229   15.7672  -79.4429   15.7429  -79.4641   15.7294
  3.680  -78.8110   15.2146  -78.8431   15.1217  -78.7953   15.1064  -77.3944   15.3697  -77.4237   15.3573  -77.4451   15.3447
  3.690  -76.7786   14.8580  -76.8269   14.7606  -76.7786   14.7455  -75.4156   15.0212  -75.4532   15.0218  -75.4747   15.0101
  3.700  -74.7963   14.5498  -74.8609   14.4491  -74.8120   14.4339  -73.4843   14.7191  -73.5294   14.7342  -73.5510   14.7232
  3.710  -72.8617   14.2879  -72.9430   14.1846  -72.8935   14.1692  -71.5987   14.4615  -71.6505   14.4922  -71.6724   14.4819
  3.720  -70.9732   14.0703  -71.0718   13.9653  -71.0213   13.9495  -69.7573   14.2464  -69.8153   14.2943  -69.8375   14.2846
  3.730  -69.1293   13.8955  -69.2458   13.7895  -69.1943   13.7732  -67.9590   14.0725  -68.0228   14.1390  -68.0452   14.1299
  3.740  -67.3289   13.7621  -67.4642   13.6557  -67.4114   13.6388  -66.2029   13.9383  -66.2723   14.0250  -66.2950   14.0164
  3.750  -65.5712   13.6687  -65.7263   13.5626  -65.6722   13.5449  -64.4885   13.8426  -64.5633   13.9511  -64.5863   13.9431
  3.760  -63.8558   13.6143  -64.0319   13.5088  -63.9763   13.4902  -62.8156   13.7841  -62.8959   13.9162  -62.9192   13.9085
  3.770  -62.1825   13.5976  -62.3811   13.4930  -62.3237   13.4735  -61.1842   13.7614  -61.2701   13.9189  -61.2937   13.9116
  3.780  -60.5516   13.6170  -60.7740   13.5136  -60.7146   13.4931  -59.5945   13.7731  -59.6864   13.9578  -59.7103   13.9509
  3.790  -58.9632   13.6711  -59.2111   13.5689  -59.1495   13.5474  -58.0470   13.8173  -58.1453   14.0313  -58.1695   14.0246
  3.800  -57.4177   13.7581  -57.6930   13.6570  -57.6289   13.6343  -56.5420   13.8921  -56.6473   14.1375  -56.6718   14.1310
  3.810  -55.9155   13.8757  -56.2201   13.7756  -56.1534   13.7517  -55.0800   13.9952  -55.1931   14.2740  -55.2179   14.2677
  3.820  -54.4570   14.0215  -54.7930   13.9220  -54.7233   13.8969  -53.6614   14.1240  -53.7832   14.4384  -53.8083   14.4321
  3.830  -53.0424   14.1927  -53.4120   14.0932  -53.3390   14.0670  -52.2862   14.2753  -52.4179   14.6276  -52.4431   14.6214
  3.840  -51.6713   14.3862  -52.0770   14.2858  -52.0004   14.2585  -50.9542   14.4460  -51.0969   14.8385  -51.1223   14.8324
  3.850  -50.3432   14.5986  -50.7876   14.4964  -50.7070   14.4680  -49.6647   14.6323  -49.8199   15.0675  -49.8454   15.0615
  3.860  -49.0569   14.8265  -49.5427   14.7211  -49.4578   14.6918  -48.4164   14.8307  -48.5856   15.3112  -48.6112   15.3051
  3.870  -47.8106   15.0662  -48.3407   14.9561  -48.2511   14.9260  -47.2075   15.0374  -47.3923   15.5657  -47.4180   15.5596
  3.880  -46.6020   15.3143  -47.1792   15.1976  -47.0847   15.1669  -46.0353   15.2486  -46.2377   15.8276  -46.2633   15.8215
  3.890  -45.4279   15.5677  -46.0554   15.4423  -45.9554   15.4111  -44.8966   15.4611  -45.1185   16.0937  -45.1441   16.0876
  3.900  -44.2845   15.8236  -44.9656   15.6869  -44.8598   15.6556  -43.7875   15.6719  -44.0312   16.3612  -44.0566   16.3552
  3.910  -43.1675   16.0799  -43.9055   15.9288  -43.7937   15.8978  -42.7035   15.8785  -42.9713   16.6281  -42.9966   16.6220
  3.920  -42.0721   16.3351  -42.8706   16.1663  -42.7522   16.1358  -41.6396   16.0792  -41.9342   16.8927  -41.9594   16.8866
  3.930  -40.9932   16.5886  -41.8558   16.3981  -41.7306   16.3685  -40.5905   16.2730  -40.9148   17.1545  -40.9398   17.1485
  3.940  -39.9255   16.8406  -40.8558   16.6238  -40.7235   16.5955  -39.5506   16.4598  -39.9079   17.4137  -39.9328   17.4077
  3.950  -38.8636   17.0922  -39.8655   16.8438  -39.7257   16.8173  -38.5144   16.6401  -38.9085   17.6714  -38.9331   17.6653
  3.960  -37.8023   17.3455  -38.8795   17.0593  -38.7320   17.0351  -37.4763   16.8154  -37.9114   17.9293  -37.9358   17.9233
  3.970  -36.7367   17.6032  -37.8928   17.2722  -37.7374   17.2507  -36.4309   16.9878  -36.9118   18.1904  -36.9361   18.1843
  3.980  -35.6622   17.8690  -36.9005   17.4849  -36.7369   17.4666  -35.3728   17.1601  -35.9054   18.4578  -35.9294   18.4516
  3.990  -34.5745   18.1472  -35.8981   17.7006  -35.7260   17.6860  -34.2971   17.3358  -34.8881   18.7357  -34.9119   18.7293
  4.000  -33.4701   18.4428  -34.8812   17.9228  -34.7004   17.9125  -33.1991   17.5189  -33.8564   19.0287  -33.8799   19.0220
  4.010  -32.3460   18.7613  -33.8455   18.1556  -33.6557   18.1501  -32.0742   17.7137  -32.8072   19.3418  -32.8303   19.3348
  4.020  -31.1997   19.1087  -32.7872   18.4035  -32.5881   18.4033  -30.9181   17.9254  -31.7380   19.6806  -31.7605   19.6730
  4.030  -30.0297   19.4914  -31.7023   18.6712  -31.4935   18.6771  -29.7267   18.1595  -30.6466   20.0508  -30.6684   20.0425
  4.040  -28.8351   19.9157  -30.5868   18.9644  -30.3678   18.9768  -28.4958   18.4218  -29.5314   20.4585  -29.5523   20.4494
  4.050  -27.6157   20.3883  -29.4365   19.2890  -29.2070   19.3086  -27.2213   18.7190  -28.3910   20.9099  -28.4107   20.8999
  4.060  -26.3721   20.9150  -28.2472   19.6518  -28.0064   19.6794  -25.8990   19.0583  -27.2243   21.4113  -27.2425   21.4003
  4.070  -25.1050   21.5010  -27.0139   20.0609  -26.7612   20.0974  -24.5247   19.4480  -26.0300   21.9690  -26.0464   21.9571
  4.080  -23.8149   22.1504  -25.7316   20.5257  -25.4660   20.5721  -23.0939   19.8970  -24.8063   22.5894  -24.8205   22.5765
  4.090  -22.5004   22.8657  -24.3947   21.0578  -24.1151   21.1154  -21.6019   20.4159  -23.5497   23.2793  -23.5617   23.2653
  4.100  -21.1567   23.6484  -22.9974   21.6714  -22.7026   21.7418  -20.0436   21.0168  -22.2550   24.0468  -22.2645   24.0313
  4.110  -19.7731   24.5014  -21.5343   22.3843  -21.2228   22.4696  -18.4137   21.7138  -20.9139   24.9030  -20.9204   24.8851
  4.120  -18.3315   25.4323  -20.0009   23.2186  -19.6709   23.3214  -16.7068   22.5236  -19.5151   25.8644  -19.5175   25.8428
  4.130  -16.8078   26.4597  -18.3948   24.2019  -18.0444   24.3258  -14.9173   23.4663  -18.0462   26.9564  -18.0417   26.9296
  4.140  -15.1759   27.6181  -16.7176   25.3677  -16.3450   25.5172  -13.0397   24.5660  -16.4961   28.2162  -16.4801   28.1838
  4.150  -13.4159   28.9606  -14.9770   26.7560  -14.5806   26.9371  -11.0695   25.8523  -14.8609   29.6944  -14.8273   29.6588
  4.160  -11.5222   30.5569  -13.1899   28.4132  -12.7687   28.6336   -9.0031   27.3611  -13.1496   31.4555  -13.0927   31.4227
  4.170   -9.5084   32.4885  -11.3856   30.3908  -10.9397   30.6599   -6.8400   29.1368  -11.3912   33.5749  -11.3078   33.5546
  4.180   -7.4101   34.8440   -9.6093   32.7430   -9.1410   33.0726   -4.5837   31.2341   -9.6401   36.1349   -9.5317   36.1387
  4.190   -5.2856   37.7170   -7.9259   35.5236   -7.4402   35.9273   -2.2452   33.7210   -7.9823   39.2183   -7.8559   39.2570
  4.200   -3.2210   41.2069   -6.4227   38.7798   -5.9290   39.2730    0.1525   36.6811   -6.5408   42.9006   -6.4076   42.9820
  4.210   -1.3395   45.4172   -5.2116   42.5458   -4.7249   43.1447    2.5677   40.2178   -5.4809   47.2392   -5.3548   47.3659
  4.220    0.1831   50.4492   -4.4285   46.8337   -3.9711   47.5537    4.9283   44.4562   -5.0154   52.2570   -4.9102   52.4262
  4.230    1.0994   56.3841   -4.2312   51.6235   -3.8341   52.4767    7.1150   49.5438   -5.4061   57.9188   -5.3332   58.1233
  4.240    1.0728   63.2472   -4.7922   56.8530   -4.4957   57.8442    8.9371   55.6454   -6.9558   64.0975   -6.9227   64.3275
  4.250   -0.3246   70.9490   -6.2886   62.4091   -6.1417   63.5309   10.0973   62.9241   -9.9799   70.5319   -9.9910   70.7772
  4.260   -3.5771   79.2059   -8.8903   68.1228   -8.9474   69.3494   10.1509   71.4980  -14.7446   76.7872  -14.8019   77.0382
  4.270   -9.1267   87.4678  -12.7491   73.7637  -13.0627   75.0449    8.4693   81.3517  -21.3600   82.2466  -21.4652   82.4935
  4.280  -17.2071   94.9068  -17.9876   79.0286  -18.5963   80.2866    4.2476   92.1852  -29.6476   86.1803  -29.8013   86.4107
  4.290  -27.6640  100.5282  -24.6718   83.5154  -25.5837   84.6484   -3.3698  103.2117  -39.0502   87.9246  -39.2482   88.1232
  4.300  -39.8635  103.3996  -32.7359   86.7013  -33.9122   87.5983  -14.9533  113.0032  -48.6888   87.1283  -48.9182   87.2805
  4.310  -52.7537  102.9065  -41.8520   87.9895  -43.1999   88.5585  -30.2537  119.6234  -57.6016   83.9178  -57.8425   84.0170
  4.320  -65.0531   98.9481  -51.3280   86.9021  -52.7155   87.1025  -47.7862  121.2723  -65.0458   78.8487  -65.2781   78.8994
  4.330  -75.5380   92.0268  -60.2046   83.3644  -61.4969   83.2244  -65.0731  117.2368  -70.6713   72.6745  -70.8818   72.6891
  4.340  -83.3802   83.1498  -67.5921   77.8397  -68.6922   77.4429  -79.6560  108.3766  -74.4962   66.0981  -74.6798   66.0908
  4.350  -88.3574   73.5037  -73.0067   71.1473  -73.8738   70.5976  -90.1234   96.6353  -76.7649   59.6348  -76.9228   59.6174
  4.360  -90.7836   64.0849  -76.4443   64.1161  -77.0856   63.5052  -96.3610   84.0516  -77.8039   53.5932  -77.9403   53.5737
  4.370  -91.2457   55.5103  -78.2146   57.3469  -78.6641   56.7389  -99.0982   72.0799  -77.9296   48.1194  -78.0496   48.1023
  4.380  -90.3560   48.0404  -78.7297   51.1668  -79.0293   50.5989  -99.3248   61.4651  -77.4075   43.2535  -77.5154   43.2409
  4.390  -88.6197   41.6979  -78.3698   45.6956  -78.5585   45.1848  -97.9322   52.4299  -76.4436   38.9757  -76.5431   38.9684
  4.400  -86.4038   36.3842  -77.4336   40.9320  -77.5434   40.4827  -95.5900   44.9078  -75.1907   35.2370  -75.2843   35.2349
  4.410  -83.9541   31.9562  -76.1369   36.8167  -76.1918   36.4264  -92.7528   38.7102  -73.7585   31.9777  -73.8483   31.9804
  4.420  -81.4268   28.2674  -74.6280   33.2700  -74.6459   32.9332  -89.7095   33.6199  -72.2247   29.1369  -72.3120   29.1439
  4.430  -78.9166   25.1861  -73.0066   30.2114  -72.9998   29.9213  -86.6350   29.4334  -70.6430   26.6580  -70.7287   26.6688
  4.440  -76.4779   22.6006  -71.3379   27.5668  -71.3153   27.3168  -83.6299   25.9767  -69.0501   24.4902  -69.1351   24.5044
  4.450  -74.1400   20.4194  -69.6643   25.2722  -69.6318   25.0561  -80.7484   23.1068  -67.4709   22.5894  -67.5555   22.6065
  4.460  -71.9161   18.5681  -68.0127   23.2732  -67.9744   23.0855  -78.0162   20.7092  -65.9214   20.9174  -66.0060   20.9371
  4.470  -69.8103   16.9875  -66.3996   21.5242  -66.3583   21.3605  -75.4420   18.6931  -64.4118   19.4418  -64.4967   19.4639
  4.480  -67.8209   15.6299  -64.8348   19.9875  -64.7923   19.8437  -73.0250   16.9864  -62.9481   18.1353  -63.0336   18.1595
  4.490  -65.9431   14.4570  -63.3235   18.6316  -63.2808   18.5045  -70.7590   15.5325  -61.5336   16.9744  -61.6197   17.0006
  4.500  -64.1707   13.4381  -61.8678   17.4304  -61.8257   17.3172  -68.6347   14.2860  -60.1694   15.9397  -60.2563   15.9677
  4.510  -62.4965   12.5484  -60.4681   16.3620  -60.4270   16.2604  -66.6421   13.2111  -58.8553   15.0142  -58.9432   15.0440
  4.520  -60.9133   11.7675  -59.1234   15.4083  -59.0834   15.3164  -64.7708   12.2790  -57.5904   14.1840  -57.6793   14.2155
  4.530  -59.4141   11.0791  -57.8319   14.5540  -57.7930   14.4701  -63.0106   11.4664  -56.3729   13.4370  -56.4629   13.4702
  4.540  -57.9922   10.4695  -56.5914   13.7861  -56.5536   13.7090  -61.3520   10.7544  -55.2011   12.7630  -55.2923   12.7977
  4.550  -56.6414    9.9276  -55.3995   13.0939  -55.3625   13.0223  -59.7861   10.1279  -54.0726   12.1531  -54.1651   12.1895
  4.560  -55.3559    9.4441  -54.2534   12.4680  -54.2172   12.4011  -58.3049    9.5742  -52.9854   11.5999  -53.0793   11.6379
  4.570  -54.1304    9.0113  -53.1507   11.9007  -53.1150   11.8376  -56.9009    9.0829  -51.9371   11.0970  -52.0325   11.1366
  4.580  -52.9601    8.6226  -52.0888   11.3851  -52.0535   11.3252  -55.5674    8.6455  -50.9256   10.6387  -51.0225   10.6799
  4.590  -51.8407    8.2727  -51.0653   10.9154  -51.0300   10.8581  -54.2985    8.2548  -49.9487   10.2203  -50.0473   10.2631
  4.600  -50.7681    7.9567  -50.0777   10.4867  -50.0424   10.4315  -53.0887    7.9047  -49.0044    9.8376  -49.1048    9.8820
  4.610  -49.7386    7.6709  -49.1239   10.0947  -49.0883   10.0412  -51.9331    7.5903  -48.0907    9.4869  -48.1930    9.5330
  4.620  -48.7491    7.4118  -48.2017    9.7355  -48.1656    9.6834  -50.8272    7.3072  -47.2058    9.1651  -47.3101    9.2129
  4.630  -47.7964    7.1766  -47.3092    9.4061  -47.2725    9.3549  -49.7671    7.0518  -46.3479    8.8695  -46.4543    8.9190
  4.640  -46.8778    6.9628  -46.4446    9.1034  -46.4070    9.0530  -48.7491    6.8210  -45.5155    8.5976  -45.6240    8.6488
  4.650  -45.9909    6.7683  -45.6060    8.8251  -45.5674    8.7752  -47.7700    6.6123  -44.7069    8.3472  -44.8177    8.4003
  4.660  -45.1334    6.5911  -44.7920    8.5689  -44.7521    8.5193  -46.8267    6.4232  -43.9207    8.1166  -44.0339    8.1715
  4.670  -44.3031    6.4298  -44.0009    8.3329  -43.9596    8.2834  -45.9167    6.2518  -43.1555    7.9040  -43.2713    7.9608
  4.680  -43.4982    6.2829  -43.2314    8.1155  -43.1885    8.0659  -45.0374    6.0965  -42.4102    7.7081  -42.5286    7.7668
  4.690  -42.7169    6.1492  -42.4821    7.9151  -42.4375    7.8654  -44.1866    5.9558  -41.6834    7.5274  -41.8046    7.5881
  4.700  -41.9577    6.0276  -41.7519    7.7304  -41.7053    7.6804  -43.3622    5.8284  -40.9741    7.3609  -41.0983    7.4236
  4.710  -41.2189    5.9172  -41.0395    7.5603  -40.9908    7.5099  -42.5625    5.7132  -40.2812    7.2076  -40.4085    7.2724
  4.720  -40.4993    5.8173  -40.3439    7.4038  -40.2930    7.3528  -41.7856    5.6093  -39.6038    7.0666  -39.7343    7.1335
  4.730  -39.7976    5.7270  -39.6641    7.2598  -39.6107    7.2082  -41.0299    5.5157  -38.9409    6.9370  -39.0747    7.0061
  4.740  -39.1127    5.6458  -38.9992    7.1277  -38.9432    7.0753  -40.2941    5.4319  -38.2916    6.8182  -38.4290    6.8895
  4.750  -38.4434    5.5732  -38.3481    7.0066  -38.2894    6.9535  -39.5768    5.3571  -37.6551    6.7095  -37.7963    6.7832
  4.760  -37.7887    5.5086  -37.7102    6.8960  -37.6485    6.8420  -38.8767    5.2907  -37.0307    6.6104  -37.1758    6.6865
  4.770  -37.1476    5.4518  -37.0846    6.7953  -37.0198    6.7403  -38.1927    5.2324  -36.4175    6.5204  -36.5668    6.5990
  4.780  -36.5194    5.4022  -36.4706    6.7040  -36.4025    6.6480  -37.5237    5.1817  -35.8150    6.4391  -35.9686    6.5203
  4.790  -35.9032    5.3596  -35.8674    6.6216  -35.7958    6.5646  -36.8687    5.1383  -35.2224    6.3662  -35.3806    6.4500
  4.800  -35.2981    5.3238  -35.2745    6.5478  -35.1992    6.4897  -36.2267    5.1018  -34.6392    6.3012  -34.8021    6.3877
  4.810  -34.7036    5.2946  -34.6912    6.4823  -34.6120    6.4230  -35.5970    5.0720  -34.0646    6.2439  -34.2326    6.3332
  4.820  -34.1188    5.2717  -34.1168    6.4248  -34.0336    6.3643  -34.9786    5.0487  -33.4983    6.1940  -33.6716    6.2863
  4.830  -33.5432    5.2551  -33.5509    6.3750  -33.4633    6.3132  -34.3708    5.0318  -32.9395    6.1515  -33.1184    6.2468
  4.840  -32.9762    5.2446  -32.9929    6.3328  -32.9008    6.2696  -33.7729    5.0210  -32.3879    6.1161  -32.5727    6.2145
  4.850  -32.4171    5.2402  -32.4423    6.2979  -32.3454    6.2334  -33.1841    5.0163  -31.8429    6.0876  -32.0339    6.1892
  4.860  -31.8655    5.2418  -31.8985    6.2704  -31.7966    6.2044  -32.6039    5.0176  -31.3040    6.0661  -31.5015    6.1710
  4.870  -31.3207    5.2494  -31.3612    6.2499  -31.2540    6.1825  -32.0316    5.0250  -30.7707    6.0514  -30.9752    6.1598
  4.880  -30.7825    5.2630  -30.8299    6.2366  -30.7171    6.1676  -31.4667    5.0383  -30.2427    6.0435  -30.4546    6.1554
  4.890  -30.2502    5.2826  -30.3042    6.2304  -30.1855    6.1598  -30.9085    5.0576  -29.7196    6.0423  -29.9392    6.1580
  4.900  -29.7234    5.3084  -29.7837    6.2313  -29.6588    6.1591  -30.3566    5.0830  -29.2008    6.0481  -29.4286    6.1676
  4.910  -29.2018    5.3404  -29.2680    6.2393  -29.1365    6.1654  -29.8105    5.1146  -28.6861    6.0607  -28.9226    6.1842
  4.920  -28.6849    5.3787  -28.7567    6.2546  -28.6183    6.1789  -29.2696    5.1524  -28.1750    6.0803  -28.4208    6.2080
  4.930  -28.1724    5.4236  -28.2496    6.2771  -28.1038    6.1996  -28.7336    5.1967  -27.6672    6.1070  -27.9228    6.2390
  4.940  -27.6639    5.4750  -27.7462    6.3070  -27.5927    6.2277  -28.2020    5.2475  -27.1623    6.1409  -27.4284    6.2774
  4.950  -27.1591    5.5334  -27.2463    6.3445  -27.0846    6.2634  -27.6744    5.3050  -26.6601    6.1822  -26.9372    6.3234
  4.960  -26.6578    5.5987  -26.7496    6.3897  -26.5792    6.3067  -27.1503    5.3696  -26.1601    6.2312  -26.4491    6.3772
  4.970  -26.1595    5.6715  -26.2559    6.4429  -26.0762    6.3579  -26.6295    5.4414  -25.6620    6.2880  -25.9637    6.4391
  4.980  -25.6641    5.7518  -25.7648    6.5043  -25.5754    6.4173  -26.1116    5.5206  -25.1657    6.3529  -25.4809    6.5093
  4.990  -25.1714    5.8400  -25.2763    6.5742  -25.0764    6.4851  -25.5962    5.6078  -24.6707    6.4263  -25.0005    6.5881
  5.000  -24.6811    5.9364  -24.7901    6.6528  -24.5790    6.5616  -25.0830    5.7030  -24.1769    6.5085  -24.5223    6.6759
  5.010  -24.1931    6.0414  -24.3060    6.7405  -24.0830    6.6472  -24.5718    5.8069  -23.6840    6.5997  -24.0461    6.7731
  5.020  -23.7072    6.1554  -23.8239    6.8377  -23.5883    6.7422  -24.0623    5.9196  -23.1917    6.7005  -23.5719    6.8800
  5.030  -23.2234    6.2787  -23.3438    6.9448  -23.0945    6.8469  -23.5543    6.0418  -22.6999    6.8113  -23.0997    6.9971
  5.040  -22.7416    6.4118  -22.8656    7.0620  -22.6017    6.9619  -23.0475    6.1738  -22.2084    6.9325  -22.6293    7.1249
  5.050  -22.2618    6.5551  -22.3893    7.1899  -22.1096    7.0875  -22.5417    6.3162  -21.7170    7.0647  -22.1608    7.2639
  5.060  -21.7839    6.7090  -21.9149    7.3289  -21.6182    7.2242  -22.0369    6.4694  -21.2255    7.2083  -21.6943    7.4145
  5.070  -21.3082    6.8739  -21.4425    7.4793  -21.1274    7.3724  -21.5329    6.6341  -20.7340    7.3641  -21.2300    7.5774
  5.080  -20.8346    7.0503  -20.9723    7.6418  -20.6372    7.5327  -21.0295    6.8107  -20.2422    7.5324  -20.7681    7.7530
  5.090  -20.3634    7.2386  -20.5044    7.8166  -20.1476    7.7054  -20.5268    7.0000  -19.7502    7.7141  -20.3088    7.9421
  5.100  -19.8948    7.4391  -20.0392    8.0041  -19.6585    7.8910  -20.0247    7.2025  -19.2579    7.9098  -19.8525    8.1450
  5.110  -19.4289    7.6521  -19.5767    8.2048  -19.1700    8.0901  -19.5231    7.4189  -18.7652    8.1200  -19.3997    8.3623
  5.120  -18.9661    7.8779  -19.1175    8.4189  -18.6821    8.3029  -19.0221    7.6497  -18.2721    8.3457  -18.9508    8.5946
  5.130  -18.5065    8.1167  -18.6617    8.6467  -18.1946    8.5300  -18.5215    7.8957  -17.7786    8.5874  -18.5065    8.8423
  5.140  -18.0503    8.3684  -18.2097    8.8882  -17.7076    8.7717  -18.0213    8.1574  -17.2847    8.8460  -18.0674    9.1057
  5.150  -17.5977    8.6331  -17.7618    9.1434  -17.2207    9.0283  -17.5214    8.4357  -16.7901    9.1223  -17.6343    9.3850
  5.160  -17.1484    8.9105  -17.3180    9.4123  -16.7334    9.3003  -17.0215    8.7311  -16.2947    9.4171  -17.2079    9.6805
  5.170  -16.7021    9.2003  -16.8783    9.6946  -16.2453    9.5880  -16.5213    9.0446  -15.7981    9.7316  -16.7889    9.9919
  5.180  -16.2581    9.5022  -16.4423    9.9901  -15.7552    9.8921  -16.0201    9.3770  -15.2998   10.0669  -16.3780   10.3191
  5.190  -15.8150    9.8159  -16.0094   10.2983  -15.2618   10.2133  -15.5171    9.7297  -14.7992   10.4245  -15.9757   10.6616
  5.200  -15.3711   10.1413  -15.5782   10.6191  -14.7635   10.5531  -15.0111   10.1041  -14.2954   10.8065  -15.5823   11.0186
  5.210  -14.9236   10.4787  -15.1469   10.9525  -14.2580   10.9133  -14.5008   10.5027  -13.7873   11.2154  -15.1974   11.3894
  5.220  -14.4688   10.8293  -14.7130   11.2992  -13.7429   11.2969  -13.9846   10.9284  -13.2740   11.6547  -14.8204   11.7730
  5.230  -14.0024   11.1957  -14.2730   11.6605  -13.2156   11.7083  -13.4609   11.3857  -12.7546   12.1291  -14.4498   12.1686
  5.240  -13.5192   11.5826  -13.8232   12.0396  -12.6738   12.1533  -12.9284   11.8807  -12.2291   12.6447  -14.0831   12.5757
  5.250  -13.0145   11.9976  -13.3594   12.4416  -12.1164   12.6400  -12.3870   12.4211  -11.6986   13.2088  -13.7167   12.9949
  5.260  -12.4848   12.4518  -12.8783   12.8739  -11.5437   13.1780  -11.8390   13.0169  -11.1667   13.8305  -13.3465   13.4281
  5.270  -11.9300   12.9598  -12.3784   13.3471  -10.9594   13.7787  -11.2899   13.6792  -10.6400   14.5191  -12.9675   13.8795
  5.280  -11.3559   13.5381  -11.8620   13.8737  -10.3706   14.4536  -10.7501   14.4190  -10.1287   15.2832  -12.5753   14.3561
  5.290  -10.7753   14.2026  -11.3360   14.4665   -9.7886   15.2132  -10.2347   15.2449   -9.6473   16.1291  -12.1672   14.8678
  5.300  -10.2074   14.9645  -10.8126   15.1364   -9.2283   16.0651   -9.7630   16.1601   -9.2125   17.0580  -11.7436   15.4268
  5.310   -9.6750   15.8270  -10.3073   15.8897   -8.7065   17.0124   -9.3547   17.1606   -8.8409   18.0661  -11.3093   16.0466
  5.320   -9.1996   16.7852   -9.8364   16.7271   -8.2400   18.0539   -9.0263   18.2362   -8.5466   19.1446  -10.8733   16.7401
  5.330   -8.7977   17.8285   -9.4136   17.6450   -7.8438   19.1850   -8.7888   19.3733   -8.3391   20.2824  -10.4490   17.5178
  5.340   -8.4795   18.9447   -9.0494   18.6381   -7.5302   20.3992   -8.6469   20.5588   -8.2235   21.4688  -10.0526   18.3869
  5.350   -8.2505   20.1235   -8.7512   19.7020   -7.3092   21.6906   -8.6018   21.7827   -8.2021   22.6959   -9.7017   19.3512
  5.360   -8.1143   21.3582   -8.5259   20.8341   -7.1906   23.0540   -8.6540   23.0396   -8.2773   23.9590   -9.4147   20.4110
  5.370   -8.0753   22.6452   -8.3817   22.0337   -7.1849   24.4856   -8.8060   24.3266   -8.4534   25.2557   -9.2102   21.5637
  5.380   -8.1407   23.9825   -8.3289   23.3004   -7.3051   25.9814   -9.0640   25.6423   -8.7377   26.5841   -9.1067   22.8042
  5.390   -8.3211   25.3680   -8.3813   24.6331   -7.5672   27.5357   -9.4375   26.9841   -9.1413   27.9409   -9.1232   24.1244
  5.400   -8.6307   26.7972   -8.5554   26.0281   -7.9901   29.1396   -9.9392   28.3463   -9.6779   29.3196   -9.2789   25.5136
  5.410   -9.0861   28.2619   -8.8703   27.4778   -8.5946   30.7791  -10.5839   29.7191  -10.3630   30.7094   -9.5931   26.9569
  5.420   -9.7056   29.7489   -9.3464   28.9698   -9.4025   32.4334  -11.3864   31.0872  -11.2124   32.0938  -10.0844   28.4354
  5.430  -10.5072   31.2386  -10.0043   30.4853  -10.4336   34.0742  -12.3605   32.4298  -12.2404   33.4502  -10.7700   29.9246
  5.440  -11.5068   32.7047  -10.8629   31.9987  -11.7041   35.6649  -13.5164   33.7200  -13.4575   34.7501  -11.6640   31.3947
  5.450  -12.7158   34.1142  -11.9372   33.4778  -13.2226   37.1612  -14.8592   34.9260  -14.8684   35.9596  -12.7755   32.8103
  5.460  -14.1386   35.4285  -13.2359   34.8834  -14.9876   38.5129  -16.3864   36.0121  -16.4702   37.0406  -14.1065   34.1311
  5.470  -15.7705   36.6048  -14.7586   36.1714  -16.9843   39.6665  -18.0869   36.9406  -18.2502   37.9533  -15.6497   35.3136
  5.480  -17.5954   37.5989  -16.4942   37.2950  -19.1832   40.5695  -19.9395   37.6747  -20.1851   38.6590  -17.3869   36.3138
  5.490  -19.5855   38.3692  -18.4186   38.2081  -21.5392   41.1756  -21.9130   38.1818  -22.2407   39.1233  -19.2880   37.0907
  5.500  -21.7012   38.8798  -20.4951   38.8695  -23.9943   41.4499  -23.9673   38.4363  -24.3737   39.3202  -21.3117   37.6101
  5.510  -23.8935   39.1052  -22.6758   39.2473  -26.4809   41.3737  -26.0560   38.4228  -26.5334   39.2344  -23.4079   37.8483
  5.520  -26.1070   39.0328  -24.9042   39.3223  -28.9278   40.9465  -28.1290   38.1376  -28.6662   38.8639  -25.5208   37.7951
  5.530  -28.2846   38.6642  -27.1206   39.0905  -31.2663   40.1873  -30.1371   37.5896  -30.7196   38.2203  -27.5938   37.4549
  5.540  -30.3721   38.0156  -29.2662   38.5636  -33.4366   39.1315  -32.0352   36.7991  -32.6460   37.3276  -29.5742   36.8464
  5.550  -32.3221   37.1155  -31.2887   37.7674  -35.3920   37.8272  -33.7857   35.7959  -34.4067   36.2200  -31.4172   36.0001
  5.560  -34.0973   36.0015  -33.1454   36.7386  -37.1014   36.3299  -35.3603   34.6165  -35.9735   34.9381  -33.0888   34.9545
  5.570  -35.6724   34.7166  -34.8062   35.5210  -38.5497   34.6968  -36.7410   33.3003  -37.3298   33.5257  -34.5669   33.7529
  5.580  -37.0333   33.3055  -36.2533   34.1609  -39.7359   32.9823  -37.9197   31.8870  -38.4701   32.0256  -35.8411   32.4386
  5.590  -38.1769   31.8111  -37.4809   32.7036  -40.6707   31.2348  -38.8972   30.4141  -39.3980   30.4776  -36.9112   31.0526
  5.600  -39.1088   30.2722  -38.4930   31.1905  -41.3730   29.4948  -39.6809   28.9148  -40.1245   28.9164  -37.7850   29.6309
  5.610  -39.8411   28.7222  -39.3011   29.6573  -41.8668   27.7938  -40.2838   27.4174  -40.6657   27.3705  -38.4761   28.2037
  5.620  -40.3904   27.1883  -39.9216   28.1332  -42.1785   26.1551  -40.7217   25.9445  -41.0405   25.8622  -39.0015   26.7949
  5.630  -40.7756   25.6916  -40.3737   26.6407  -42.3349   24.5944  -41.0124   24.5137  -41.2693   24.4080  -39.3800   25.4223
  5.640  -41.0165   24.2478  -40.6778   25.1963  -42.3613   23.1210  -41.1741   23.1377  -41.3723   23.0192  -39.6303   24.0986
  5.650  -41.1327   22.8673  -40.8538   23.8112  -42.2810   21.7393  -41.2245   21.8251  -41.3685   21.7025  -39.7705   22.8317
  5.660  -41.1427   21.5571  -40.9204   22.4925  -42.1146   20.4498  -41.1803   20.5812  -41.2757   20.4615  -39.8171   21.6265
  5.670  -41.0634   20.3203  -40.8947   21.2438  -41.8795   19.2503  -41.0566   19.4084  -41.1094   19.2970  -39.7848   20.4847
  5.680  -40.9099   19.1581  -40.7918   20.0663  -41.5907   18.1369  -40.8672   18.3071  -40.8834   18.2076  -39.6865   19.4065
  5.690  -40.6956   18.0696  -40.6248   18.9593  -41.2604   17.1046  -40.6241   17.2762  -40.6094   17.1910  -39.5331   18.3907
  5.700  -40.4320   17.0528  -40.4051   17.9211  -40.8985   16.1479  -40.3376   16.3135  -40.2975   16.2438  -39.3341   17.4353
  5.710  -40.1290   16.1045  -40.1424   16.9490  -40.5130   15.2611  -40.0167   15.4160  -39.9559   15.3621  -39.0975   16.5377
  5.720  -39.7951   15.2214  -39.8450   16.0399  -40.1104   14.4389  -39.6690   14.5802  -39.5916   14.5419  -38.8301   15.6951
  5.730  -39.4372   14.3996  -39.5199   15.1907  -39.6957   13.6759  -39.3009   13.8024  -39.2105   13.7789  -38.5376   14.9048
  5.740  -39.0613   13.6351  -39.1731   14.3977  -39.2732   12.9675  -38.9178   13.0789  -38.8172   13.0692  -38.2249   14.1638
  5.750  -38.6724   12.9242  -38.8095   13.6575  -38.8460   12.3091  -38.5240   12.4059  -38.4157   12.4088  -37.8963   13.4692
  5.760  -38.2745   12.2629  -38.4334   12.9669  -38.4168   11.6966  -38.1232   11.7798  -38.0091   11.7941  -37.5553   12.8184
  5.770  -37.8709   11.6476  -38.0484   12.3224  -37.9877   11.1264  -37.7185   11.1970  -37.6000   11.2215  -37.2051   12.2085
  5.780  -37.4645   11.0748  -37.6575   11.7208  -37.5605   10.5951  -37.3123   10.6543  -37.1907   10.6878  -36.8482   11.6371
  5.790  -37.0574   10.5413  -37.2632   11.1593  -37.1364   10.0996  -36.9066   10.1485  -36.7827   10.1900  -36.4869   11.1016
  5.800  -36.6514   10.0440  -36.8677   10.6350  -36.7165    9.6370  -36.5030    9.6769  -36.3775    9.7253  -36.1232   10.5997
  5.810  -36.2482    9.5801  -36.4726   10.1450  -36.3019    9.2048  -36.1027    9.2367  -35.9763    9.2912  -35.7587   10.1292
  5.820  -35.8487    9.1470  -36.0793    9.6870  -35.8930    8.8007  -35.7067    8.8255  -35.5797    8.8853  -35.3947    9.6878
  5.830  -35.4539    8.7423  -35.6892    9.2586  -35.4905    8.4224  -35.3159    8.4409  -35.1887    8.5054  -35.0323    9.2736
  5.840  -35.0645    8.3638  -35.3030    8.8575  -35.0948    8.0680  -34.9309    8.0810  -34.8036    8.1495  -34.6726    8.8847
  5.850  -34.6811    8.0094  -34.9215    8.4818  -34.7061    7.7358  -34.5520    7.7437  -34.4249    7.8158  -34.3162    8.5193
  5.860  -34.3041    7.6773  -34.5454    8.1295  -34.3247    7.4239  -34.1797    7.4275  -34.0528    7.5026  -33.9639    8.1759
  5.870  -33.9338    7.3657  -34.1751    7.7989  -33.9507    7.1309  -33.8141    7.1305  -33.6876    7.2083  -33.6160    7.8528
  5.880  -33.5703    7.0731  -33.8108    7.4885  -33.5842    6.8555  -33.4554    6.8515  -33.3294    6.9316  -33.2731    7.5486
  5.890  -33.2138    6.7981  -33.4530    7.1966  -33.2251    6.5963  -33.1037    6.5890  -32.9782    6.6711  -32.9354    7.2620
  5.900  -32.8643    6.5393  -33.1016    6.9220  -32.8735    6.3520  -32.7590    6.3418  -32.6340    6.4257  -32.6031    6.9918
  5.910  -32.5219    6.2956  -32.7569    6.6634  -32.5293    6.1218  -32.4213    6.1088  -32.2969    6.1942  -32.2764    6.7368
  5.920  -32.1865    6.0658  -32.4189    6.4197  -32.1924    5.9045  -32.0905    5.8890  -31.9667    5.9757  -31.9554    6.4960
  5.930  -31.8581    5.8490  -32.0875    6.1897  -31.8627    5.6992  -31.7666    5.6814  -31.6434    5.7693  -31.6402    6.2684
  5.940  -31.5365    5.6442  -31.7628    5.9725  -31.5400    5.5051  -31.4494    5.4852  -31.3268    5.5740  -31.3307    6.0531
  5.950  -31.2217    5.4505  -31.4447    5.7672  -31.2243    5.3215  -31.1388    5.2995  -31.0169    5.3892  -31.0270    5.8493
  5.960  -30.9134    5.2672  -31.1330    5.5730  -30.9153    5.1475  -30.8347    5.1236  -30.7135    5.2141  -30.7290    5.6561
  5.970  -30.6117    5.0936  -30.8278    5.3891  -30.6130    4.9826  -30.5370    4.9569  -30.4164    5.0480  -30.4368    5.4730
  5.980  -30.3163    4.9291  -30.5288    5.2149  -30.3171    4.8261  -30.2454    4.7988  -30.1256    4.8904  -30.1501    5.2992
  5.990  -30.0270    4.7729  -30.2360    5.0495  -30.0274    4.6775  -29.9599    4.6486  -29.8407    4.7407  -29.8689    5.1340
  6.000  -29.7438    4.6245  -29.9492    4.8926  -29.7439    4.5363  -29.6803    4.5059  -29.5618    4.5983  -29.5932    4.9771
  6.010  -29.4665    4.4836  -29.6682    4.7435  -29.4663    4.4020  -29.4064    4.3701  -29.2886    4.4629  -29.3227    4.8278
  6.020  -29.1948    4.3494  -29.3930    4.6016  -29.1944    4.2741  -29.1380    4.2409  -29.0210    4.3339  -29.0575    4.6857
  6.030  -28.9287    4.2217  -29.1234    4.4667  -28.9282    4.1523  -28.8751    4.1178  -28.7588    4.2110  -28.7974    4.5502
  6.040  -28.6680    4.1001  -28.8592    4.3381  -28.6674    4.0362  -28.6175    4.0005  -28.5019    4.0937  -28.5422    4.4211
  6.050  -28.4126    3.9840  -28.6003    4.2156  -28.4119    3.9253  -28.3649    3.8885  -28.2501    3.9818  -28.2919    4.2979
  6.060  -28.1622    3.8733  -28.3465    4.0987  -28.1615    3.8195  -28.1174    3.7816  -28.0032    3.8749  -28.0464    4.1802
  6.070  -27.9167    3.7676  -28.0977    3.9870  -27.9160    3.7184  -27.8746    3.6794  -27.7612    3.7728  -27.8054    4.0678
  6.080  -27.6760    3.6665  -27.8537    3.8804  -27.6754    3.6217  -27.6365    3.5817  -27.5238    3.6750  -27.5690    3.9603
  6.090  -27.4400    3.5699  -27.6145    3.7785  -27.4394    3.5292  -27.4030    3.4883  -27.2910    3.5815  -27.3369    3.8574
  6.100  -27.2085    3.4774  -27.3798    3.6810  -27.2080    3.4406  -27.1738    3.3988  -27.0626    3.4919  -27.1091    3.7589
  6.110  -26.9813    3.3889  -27.1496    3.5876  -26.9809    3.3557  -26.9489    3.3130  -26.8384    3.4060  -26.8854    3.6646
  6.120  -26.7584    3.3040  -26.9237    3.4981  -26.7581    3.2743  -26.7282    3.2308  -26.6184    3.3236  -26.6657    3.5741
  6.130  -26.5396    3.2226  -26.7020    3.4124  -26.5395    3.1962  -26.5115    3.1520  -26.4024    3.2446  -26.4500    3.4873
  6.140  -26.3248    3.1445  -26.4844    3.3301  -26.3248    3.1212  -26.2987    3.0763  -26.1904    3.1687  -26.2381    3.4040
  6.150  -26.1139    3.0696  -26.2706    3.2512  -26.1140    3.0492  -26.0897    3.0036  -25.9821    3.0958  -26.0299    3.3240
  6.160  -25.9067    2.9976  -26.0608    3.1754  -25.9070    2.9800  -25.8844    2.9337  -25.7775    3.0257  -25.8253    3.2472
  6.170  -25.7032    2.9284  -25.8546    3.1025  -25.7036    2.9134  -25.6826    2.8665  -25.5764    2.9582  -25.6242    3.1732
  6.180  -25.5033    2.8618  -25.6521    3.0324  -25.5038    2.8494  -25.4843    2.8019  -25.3789    2.8933  -25.4265    3.1021
  6.190  -25.3068    2.7978  -25.4530    2.9650  -25.3075    2.7877  -25.2894    2.7397  -25.1847    2.8308  -25.2322    3.0336
  6.200  -25.1136    2.7361  -25.2574    2.9001  -25.1145    2.7283  -25.0978    2.6797  -24.9938    2.7705  -25.0411    2.9677
  6.210  -24.9236    2.6767  -25.0651    2.8376  -24.9247    2.6710  -24.9093    2.6220  -24.8060    2.7125  -24.8531    2.9041
  6.220  -24.7369    2.6194  -24.8760    2.7774  -24.7381    2.6158  -24.7239    2.5663  -24.6214    2.6565  -24.6681    2.8429
  6.230  -24.5532    2.5642  -24.6901    2.7193  -24.5546    2.5625  -24.5416    2.5126  -24.4397    2.6024  -24.4862    2.7838
  6.240  -24.3724    2.5110  -24.5071    2.6633  -24.3740    2.5111  -24.3621    2.4607  -24.2610    2.5502  -24.3071    2.7267
  6.250  -24.1946    2.4596  -24.3272    2.6092  -24.1964    2.4614  -24.1856    2.4107  -24.0851    2.4998  -24.1309    2.6717
  6.260  -24.0196    2.4099  -24.1501    2.5570  -24.0215    2.4134  -24.0117    2.3623  -23.9120    2.4511  -23.9574    2.6185
  6.270  -23.8473    2.3620  -23.9758    2.5066  -23.8495    2.3670  -23.8406    2.3156  -23.7416    2.4040  -23.7866    2.5670
  6.280  -23.6777    2.3156  -23.8042    2.4578  -23.6800    2.3221  -23.6721    2.2704  -23.5738    2.3585  -23.6184    2.5173
  6.290  -23.5108    2.2708  -23.6353    2.4107  -23.5132    2.2787  -23.5062    2.2267  -23.4085    2.3144  -23.4527    2.4692
  6.300  -23.3463    2.2274  -23.4689    2.3651  -23.3489    2.2367  -23.3427    2.1845  -23.2457    2.2717  -23.2895    2.4227
  6.310  -23.1843    2.1854  -23.3051    2.3210  -23.1871    2.1960  -23.1816    2.1435  -23.0854    2.2304  -23.1287    2.3777
  6.320  -23.0247    2.1448  -23.1437    2.2782  -23.0276    2.1565  -23.0229    2.1039  -22.9273    2.1903  -22.9703    2.3340
  6.330  -22.8674    2.1054  -22.9847    2.2368  -22.8705    2.1183  -22.8666    2.0655  -22.7716    2.1515  -22.8141    2.2918
  6.340  -22.7124    2.0673  -22.8280    2.1967  -22.7157    2.0813  -22.7124    2.0282  -22.6181    2.1139  -22.6602    2.2508
  6.350  -22.5596    2.0303  -22.6736    2.1579  -22.5631    2.0453  -22.5604    1.9921  -22.4668    2.0773  -22.5084    2.2111
  6.360  -22.4090    1.9944  -22.5214    2.1202  -22.4126    2.0105  -22.4106    1.9571  -22.3177    2.0419  -22.3588    2.1725
  6.370  -22.2605    1.9596  -22.3714    2.0836  -22.2643    1.9766  -22.2628    1.9231  -22.1705    2.0075  -22.2112    2.1351
  6.380  -22.1141    1.9259  -22.2234    2.0481  -22.1180    1.9438  -22.1171    1.8901  -22.0255    1.9741  -22.0657    2.0988
  6.390  -21.9697    1.8931  -22.0775    2.0136  -21.9737    1.9118  -21.9733    1.8581  -21.8824    1.9417  -21.9221    2.0636
  6.400  -21.8272    1.8613  -21.9335    1.9802  -21.8314    1.8808  -21.8315    1.8270  -21.7412    1.9101  -21.7805    2.0293
  6.410  -21.6866    1.8303  -21.7916    1.9476  -21.6910    1.8507  -21.6916    1.7968  -21.6019    1.8795  -21.6407    1.9961
  6.420  -21.5479    1.8003  -21.6515    1.9160  -21.5524    1.8214  -21.5535    1.7674  -21.4644    1.8497  -21.5028    1.9637
  6.430  -21.4111    1.7711  -21.5133    1.8853  -21.4157    1.7928  -21.4172    1.7388  -21.3287    1.8207  -21.3667    1.9323
  6.440  -21.2760    1.7427  -21.3769    1.8554  -21.2807    1.7651  -21.2827    1.7110  -21.1948    1.7925  -21.2323    1.9017
  6.450  -21.1426    1.7150  -21.2423    1.8264  -21.1475    1.7381  -21.1498    1.6840  -21.0626    1.7650  -21.0997    1.8719
  6.460  -21.0110    1.6881  -21.1094    1.7981  -21.0160    1.7118  -21.0187    1.6577  -20.9321    1.7383  -20.9687    1.8429
  6.470  -20.8810    1.6620  -20.9782    1.7705  -20.8861    1.6862  -20.8892    1.6321  -20.8032    1.7122  -20.8394    1.8147
  6.480  -20.7527    1.6365  -20.8486    1.7437  -20.7579    1.6612  -20.7613    1.6071  -20.6759    1.6868  -20.7117    1.7872
  6.490  -20.6259    1.6117  -20.7207    1.7176  -20.6312    1.6369  -20.6350    1.5828  -20.5502    1.6621  -20.5855    1.7605
  6.500  -20.5007    1.5875  -20.5944    1.6922  -20.5062    1.6132  -20.5102    1.5591  -20.4260    1.6380  -20.4609    1.7344
  6.510  -20.3770    1.5639  -20.4696    1.6674  -20.3826    1.5901  -20.3869    1.5361  -20.3033    1.6145  -20.3378    1.7090
  6.520  -20.2548    1.5410  -20.3463    1.6432  -20.2605    1.5676  -20.2651    1.5136  -20.1821    1.5916  -20.2161    1.6842
  6.530  -20.1341    1.5186  -20.2245    1.6196  -20.1399    1.5456  -20.1448    1.4916  -20.0623    1.5692  -20.0959    1.6600
  6.540  -20.0147    1.4967  -20.1041    1.5966  -20.0206    1.5241  -20.0258    1.4702  -19.9439    1.5474  -19.9771    1.6364
  6.550  -19.8968    1.4754  -19.9852    1.5742  -19.9028    1.5032  -19.9082    1.4493  -19.8269    1.5261  -19.8597    1.6134
  6.560  -19.7803    1.4546  -19.8676    1.5523  -19.7864    1.4828  -19.7920    1.4290  -19.7112    1.5053  -19.7437    1.5910
  6.570  -19.6651    1.4343  -19.7515    1.5309  -19.6713    1.4628  -19.6771    1.4091  -19.5969    1.4850  -19.6290    1.5690
  6.580  -19.5512    1.4145  -19.6366    1.5101  -19.5575    1.4433  -19.5635    1.3897  -19.4838    1.4651  -19.5155    1.5476
  6.590  -19.4386    1.3952  -19.5231    1.4897  -19.4449    1.4242  -19.4512    1.3707  -19.3721    1.4458  -19.4034    1.5267
  6.600  -19.3272    1.3763  -19.4108    1.4698  -19.3337    1.4056  -19.3401    1.3522  -19.2615    1.4268  -19.2925    1.5063
  6.610  -19.2171    1.3578  -19.2998    1.4503  -19.2236    1.3874  -19.2303    1.3340  -19.1522    1.4083  -19.1828    1.4863
  6.620  -19.1082    1.3398  -19.1901    1.4313  -19.1148    1.3696  -19.1216    1.3164  -19.0441    1.3902  -19.0743    1.4668
  6.630  -19.0005    1.3222  -19.0815    1.4127  -19.0072    1.3522  -19.0141    1.2991  -18.9372    1.3725  -18.9670    1.4478
  6.640  -18.8939    1.3049  -18.9741    1.3945  -18.9007    1.3352  -18.9078    1.2821  -18.8314    1.3552  -18.8609    1.4291
  6.650  -18.7885    1.2881  -18.8679    1.3768  -18.7954    1.3185  -18.8026    1.2656  -18.7267    1.3382  -18.7558    1.4109
  6.660  -18.6842    1.2716  -18.7628    1.3594  -18.6912    1.3022  -18.6986    1.2494  -18.6231    1.3216  -18.6519    1.3930
  6.670  -18.5811    1.2555  -18.6589    1.3424  -18.5881    1.2863  -18.5956    1.2336  -18.5207    1.3054  -18.5491    1.3756
  6.680  -18.4790    1.2397  -18.5560    1.3257  -18.4860    1.2707  -18.4937    1.2181  -18.4192    1.2895  -18.4474    1.3585
  6.690  -18.3779    1.2242  -18.4542    1.3094  -18.3851    1.2554  -18.3928    1.2030  -18.3189    1.2740  -18.3467    1.3418
  6.700  -18.2779    1.2091  -18.3535    1.2935  -18.2851    1.2404  -18.2930    1.1881  -18.2196    1.2587  -18.2470    1.3254
  6.710  -18.1789    1.1943  -18.2538    1.2779  -18.1862    1.2257  -18.1942    1.1736  -18.1212    1.2438  -18.1484    1.3094
  6.720  -18.0809    1.1798  -18.1551    1.2626  -18.0883    1.2114  -18.0964    1.1594  -18.0239    1.2292  -18.0508    1.2937
  6.730  -17.9840    1.1656  -18.0574    1.2476  -17.9913    1.1973  -17.9995    1.1454  -17.9275    1.2149  -17.9541    1.2783
  6.740  -17.8879    1.1517  -17.9607    1.2329  -17.8954    1.1835  -17.9036    1.1318  -17.8321    1.2008  -17.8584    1.2632
  6.750  -17.7929    1.1381  -17.8650    1.2185  -17.8004    1.1700  -17.8087    1.1184  -17.7377    1.1871  -17.7636    1.2484
  6.760  -17.6987    1.1248  -17.7702    1.2044  -17.7063    1.1567  -17.7147    1.1053  -17.6441    1.1736  -17.6698    1.2340
  6.770  -17.6055    1.1117  -17.6763    1.1906  -17.6131    1.1437  -17.6216    1.0924  -17.5515    1.1603  -17.5769    1.2198
  6.780  -17.5132    1.0989  -17.5834    1.1771  -17.5208    1.1309  -17.5294    1.0798  -17.4598    1.1474  -17.4849    1.2059
  6.790  -17.4218    1.0863  -17.4914    1.1638  -17.4295    1.1184  -17.4381    1.0675  -17.3689    1.1346  -17.3937    1.1922
  6.800  -17.3312    1.0740  -17.4002    1.1507  -17.3390    1.1061  -17.3477    1.0553  -17.2789    1.1222  -17.3034    1.1788
  6.810  -17.2415    1.0619  -17.3099    1.1379  -17.2493    1.0941  -17.2581    1.0435  -17.1898    1.1099  -17.2140    1.1657
  6.820  -17.1527    1.0500  -17.2205    1.1254  -17.1605    1.0823  -17.1693    1.0318  -17.1015    1.0979  -17.1254    1.1528
  6.830  -17.0646    1.0384  -17.1319    1.1131  -17.0725    1.0707  -17.0814    1.0204  -17.0140    1.0861  -17.0377    1.1402
  6.840  -16.9774    1.0270  -17.0442    1.1010  -16.9854    1.0593  -16.9943    1.0091  -16.9273    1.0745  -16.9508    1.1278
  6.850  -16.8910    1.0157  -16.9572    1.0892  -16.8990    1.0481  -16.9079    0.9981  -16.8414    1.0631  -16.8646    1.1156
  6.860  -16.8054    1.0047  -16.8711    1.0775  -16.8134    1.0371  -16.8224    0.9873  -16.7563    1.0519  -16.7793    1.1037
  6.870  -16.7206    0.9939  -16.7857    1.0661  -16.7286    1.0263  -16.7377    0.9767  -16.6720    1.0410  -16.6947    1.0919
  6.880  -16.6365    0.9833  -16.7012    1.0549  -16.6446    1.0157  -16.6537    0.9662  -16.5884    1.0302  -16.6109    1.0804
  6.890  -16.5532    0.9729  -16.6173    1.0438  -16.5613    1.0053  -16.5704    0.9560  -16.5056    1.0196  -16.5278    1.0691
  6.900  -16.4706    0.9627  -16.5343    1.0330  -16.4788    0.9951  -16.4879    0.9459  -16.4235    1.0092  -16.4455    1.0580
  6.910  -16.3888    0.9527  -16.4520    1.0224  -16.3970    0.9850  -16.4061    0.9361  -16.3421    0.9990  -16.3638    1.0470
  6.920  -16.3077    0.9428  -16.3704    1.0119  -16.3159    0.9751  -16.3251    0.9264  -16.2614    0.9889  -16.2830    1.0363
  6.930  -16.2273    0.9331  -16.2895    1.0016  -16.2355    0.9654  -16.2447    0.9168  -16.1815    0.9790  -16.2028    1.0258
  6.940  -16.1476    0.9236  -16.2093    0.9915  -16.1558    0.9558  -16.1650    0.9074  -16.1022    0.9693  -16.1233    1.0154
  6.950  -16.0685    0.9142  -16.1298    0.9816  -16.0768    0.9465  -16.0860    0.8982  -16.0236    0.9598  -16.0445    1.0052
  6.960  -15.9902    0.9050  -16.0511    0.9719  -15.9985    0.9372  -16.0077    0.8892  -15.9457    0.9504  -15.9663    0.9952
  6.970  -15.9125    0.8960  -15.9730    0.9623  -15.9208    0.9281  -15.9301    0.8803  -15.8685    0.9412  -15.8889    0.9853
  6.980  -15.8355    0.8871  -15.8955    0.9528  -15.8438    0.9192  -15.8531    0.8715  -15.7919    0.9321  -15.8121    0.9757
  6.990  -15.7591    0.8783  -15.8187    0.9436  -15.7675    0.9104  -15.7768    0.8629  -15.7159    0.9232  -15.7359    0.9661
  7.000  -15.6834    0.8697  -15.7426    0.9344  -15.6917    0.9018  -15.7011    0.8544  -15.6406    0.9144  -15.6604    0.9568
  7.010  -15.6083    0.8613  -15.6671    0.9255  -15.6167    0.8933  -15.6260    0.8461  -15.5659    0.9057  -15.5854    0.9476
  7.020  -15.5338    0.8530  -15.5922    0.9166  -15.5422    0.8849  -15.5515    0.8379  -15.4918    0.8972  -15.5112    0.9385
  7.030  -15.4599    0.8448  -15.5179    0.9079  -15.4683    0.8767  -15.4777    0.8299  -15.4183    0.8888  -15.4375    0.9296
  7.040  -15.3866    0.8367  -15.4443    0.8994  -15.3951    0.8686  -15.4044    0.8219  -15.3454    0.8806  -15.3644    0.9208
  7.050  -15.3139    0.8288  -15.3712    0.8910  -15.3224    0.8606  -15.3317    0.8141  -15.2731    0.8725  -15.2919    0.9122
  7.060  -15.2418    0.8210  -15.2988    0.8827  -15.2503    0.8527  -15.2597    0.8065  -15.2014    0.8645  -15.2200    0.9037
  7.070  -15.1703    0.8133  -15.2269    0.8745  -15.1788    0.8450  -15.1882    0.7989  -15.1302    0.8567  -15.1487    0.8953
  7.080  -15.0994    0.8058  -15.1556    0.8665  -15.1079    0.8374  -15.1172    0.7915  -15.0596    0.8489  -15.0779    0.8871
  7.090  -15.0290    0.7984  -15.0848    0.8586  -15.0375    0.8299  -15.0468    0.7841  -14.9896    0.8413  -15.0077    0.8790
  7.100  -14.9591    0.7910  -15.0147    0.8508  -14.9677    0.8225  -14.9770    0.7769  -14.9201    0.8338  -14.9380    0.8710
  7.110  -14.8899    0.7838  -14.9451    0.8431  -14.8984    0.8152  -14.9077    0.7698  -14.8512    0.8264  -14.8689    0.8631
  7.120  -14.8211    0.7767  -14.8760    0.8356  -14.8297    0.8080  -14.8390    0.7628  -14.7828    0.8191  -14.8004    0.8554
  7.130  -14.7529    0.7697  -14.8075    0.8282  -14.7615    0.8010  -14.7708    0.7559  -14.7149    0.8119  -14.7323    0.8477
  7.140  -14.6852    0.7629  -14.7395    0.8208  -14.6938    0.7940  -14.7031    0.7492  -14.6476    0.8049  -14.6648    0.8402
  7.150  -14.6180    0.7561  -14.6720    0.8136  -14.6266    0.7871  -14.6359    0.7425  -14.5807    0.7979  -14.5978    0.8328
  7.160  -14.5514    0.7494  -14.6050    0.8065  -14.5600    0.7804  -14.5693    0.7359  -14.5144    0.7910  -14.5313    0.8255
  7.170  -14.4852    0.7428  -14.5386    0.7995  -14.4938    0.7737  -14.5031    0.7294  -14.4486    0.7843  -14.4653    0.8184
  7.180  -14.4196    0.7364  -14.4726    0.7926  -14.4282    0.7672  -14.4375    0.7230  -14.3833    0.7776  -14.3998    0.8113
  7.190  -14.3544    0.7300  -14.4072    0.7858  -14.3630    0.7607  -14.3723    0.7167  -14.3184    0.7710  -14.3348    0.8043
  7.200  -14.2897    0.7237  -14.3422    0.7791  -14.2983    0.7543  -14.3076    0.7105  -14.2540    0.7645  -14.2703    0.7974
  7.210  -14.2255    0.7175  -14.2778    0.7725  -14.2341    0.7480  -14.2434    0.7044  -14.1901    0.7582  -14.2063    0.7907
  7.220  -14.1618    0.7114  -14.2138    0.7660  -14.1704    0.7418  -14.1797    0.6984  -14.1267    0.7519  -14.1427    0.7840
  7.230  -14.0985    0.7053  -14.1502    0.7595  -14.1071    0.7357  -14.1164    0.6924  -14.0638    0.7457  -14.0796    0.7774
  7.240  -14.0357    0.6994  -14.0872    0.7532  -14.0443    0.7297  -14.0536    0.6866  -14.0013    0.7395  -14.0169    0.7709
  7.250  -13.9734    0.6935  -14.0246    0.7470  -13.9820    0.7237  -13.9912    0.6808  -13.9392    0.7335  -13.9548    0.7645
  7.260  -13.9115    0.6878  -13.9624    0.7408  -13.9201    0.7179  -13.9293    0.6751  -13.8776    0.7275  -13.8930    0.7582
  7.270  -13.8500    0.6821  -13.9008    0.7347  -13.8587    0.7121  -13.8679    0.6695  -13.8165    0.7217  -13.8317    0.7520
  7.280  -13.7890    0.6765  -13.8395    0.7287  -13.7976    0.7064  -13.8068    0.6639  -13.7557    0.7159  -13.7709    0.7458
  7.290  -13.7284    0.6709  -13.7787    0.7228  -13.7371    0.7007  -13.7462    0.6585  -13.6954    0.7102  -13.7104    0.7398
  7.300  -13.6683    0.6655  -13.7183    0.7170  -13.6769    0.6952  -13.6861    0.6531  -13.6356    0.7045  -13.6504    0.7338
  7.310  -13.6086    0.6601  -13.6584    0.7112  -13.6172    0.6897  -13.6263    0.6477  -13.5761    0.6990  -13.5908    0.7279
  7.320  -13.5493    0.6548  -13.5988    0.7056  -13.5579    0.6843  -13.5670    0.6425  -13.5171    0.6935  -13.5317    0.7221
  7.330  -13.4904    0.6495  -13.5397    0.7000  -13.4990    0.6789  -13.5081    0.6373  -13.4585    0.6881  -13.4729    0.7164
  7.340  -13.4319    0.6444  -13.4810    0.6945  -13.4405    0.6737  -13.4496    0.6322  -13.4002    0.6827  -13.4146    0.7107
  7.350  -13.3738    0.6393  -13.4228    0.6890  -13.3824    0.6685  -13.3915    0.6272  -13.3424    0.6774  -13.3566    0.7051
  7.360  -13.3161    0.6342  -13.3649    0.6836  -13.3247    0.6633  -13.3338    0.6222  -13.2850    0.6722  -13.2991    0.6996
  7.370  -13.2588    0.6293  -13.3074    0.6783  -13.2674    0.6583  -13.2765    0.6173  -13.2280    0.6671  -13.2419    0.6942
  7.380  -13.2019    0.6244  -13.2503    0.6731  -13.2105    0.6533  -13.2195    0.6125  -13.1713    0.6620  -13.1852    0.6888
  7.390  -13.1454    0.6195  -13.1936    0.6679  -13.1539    0.6483  -13.1630    0.6077  -13.1150    0.6570  -13.1288    0.6835
  7.400  -13.0892    0.6148  -13.1372    0.6628  -13.0978    0.6435  -13.1068    0.6030  -13.0592    0.6521  -13.0728    0.6783
  7.410  -13.0335    0.6101  -13.0813    0.6577  -13.0420    0.6387  -13.0510    0.5983  -13.0036    0.6472  -13.0171    0.6732
  7.420  -12.9781    0.6054  -13.0257    0.6528  -12.9866    0.6339  -12.9956    0.5937  -12.9485    0.6424  -12.9619    0.6681
  7.430  -12.9230    0.6008  -12.9705    0.6479  -12.9316    0.6292  -12.9406    0.5892  -12.8937    0.6376  -12.9070    0.6630
  7.440  -12.8684    0.5963  -12.9157    0.6430  -12.8769    0.6246  -12.8859    0.5847  -12.8393    0.6329  -12.8524    0.6581
  7.450  -12.8140    0.5918  -12.8612    0.6382  -12.8226    0.6200  -12.8316    0.5803  -12.7852    0.6283  -12.7983    0.6532
  7.460  -12.7601    0.5874  -12.8071    0.6335  -12.7686    0.6155  -12.7776    0.5759  -12.7315    0.6237  -12.7444    0.6483
  7.470  -12.7065    0.5831  -12.7534    0.6288  -12.7150    0.6110  -12.7239    0.5716  -12.6781    0.6192  -12.6910    0.6436
  7.480  -12.6532    0.5787  -12.7000    0.6242  -12.6617    0.6066  -12.6707    0.5673  -12.6251    0.6147  -12.6378    0.6388
  7.490  -12.6003    0.5745  -12.6469    0.6196  -12.6088    0.6023  -12.6177    0.5631  -12.5724    0.6103  -12.5850    0.6342
  7.500  -12.5477    0.5703  -12.5942    0.6151  -12.5562    0.5980  -12.5651    0.5590  -12.5201    0.6060  -12.5326    0.6296
  7.510  -12.4955    0.5662  -12.5418    0.6107  -12.5040    0.5937  -12.5129    0.5549  -12.4680    0.6017  -12.4805    0.6250
  7.520  -12.4436    0.5621  -12.4898    0.6063  -12.4520    0.5895  -12.4609    0.5508  -12.4164    0.5974  -12.4287    0.6206
  7.530  -12.3920    0.5580  -12.4380    0.6020  -12.4004    0.5854  -12.4093    0.5468  -12.3650    0.5932  -12.3772    0.6161
  7.540  -12.3407    0.5540  -12.3867    0.5977  -12.3492    0.5813  -12.3580    0.5429  -12.3140    0.5891  -12.3261    0.6118
  7.550  -12.2898    0.5501  -12.3356    0.5934  -12.2982    0.5772  -12.3070    0.5390  -12.2632    0.5850  -12.2753    0.6074
  7.560  -12.2391    0.5462  -12.2849    0.5893  -12.2476    0.5733  -12.2564    0.5351  -12.2128    0.5809  -12.2248    0.6032
  7.570  -12.1888    0.5424  -12.2344    0.5851  -12.1972    0.5693  -12.2061    0.5313  -12.1627    0.5769  -12.1746    0.5989
  7.580  -12.1388    0.5386  -12.1843    0.5810  -12.1472    0.5654  -12.1560    0.5275  -12.1129    0.5730  -12.1247    0.5948
  7.590  -12.0891    0.5348  -12.1345    0.5770  -12.0975    0.5615  -12.1063    0.5238  -12.0635    0.5691  -12.0751    0.5906
  7.600  -12.0397    0.5311  -12.0850    0.5730  -12.0481    0.5577  -12.0569    0.5201  -12.0143    0.5652  -12.0258    0.5866
  7.610  -11.9906    0.5274  -12.0358    0.5691  -11.9990    0.5540  -12.0078    0.5165  -11.9654    0.5614  -11.9769    0.5826
  7.620  -11.9418    0.5238  -11.9869    0.5652  -11.9501    0.5502  -11.9589    0.5129  -11.9168    0.5576  -11.9282    0.5786
  7.630  -11.8933    0.5202  -11.9383    0.5613  -11.9016    0.5466  -11.9104    0.5093  -11.8685    0.5539  -11.8798    0.5747
  7.640  -11.8451    0.5167  -11.8900    0.5575  -11.8534    0.5429  -11.8621    0.5058  -11.8205    0.5502  -11.8317    0.5708
  7.650  -11.7971    0.5132  -11.8420    0.5537  -11.8054    0.5393  -11.8142    0.5024  -11.7727    0.5466  -11.7839    0.5669
  7.660  -11.7495    0.5098  -11.7943    0.5500  -11.7578    0.5358  -11.7665    0.4989  -11.7253    0.5430  -11.7363    0.5632
  7.670  -11.7021    0.5064  -11.7468    0.5464  -11.7104    0.5322  -11.7191    0.4955  -11.6781    0.5394  -11.6891    0.5594
  7.680  -11.6550    0.5030  -11.6997    0.5427  -11.6633    0.5288  -11.6720    0.4922  -11.6312    0.5359  -11.6421    0.5557
  7.690  -11.6082    0.4997  -11.6528    0.5391  -11.6164    0.5253  -11.6252    0.4889  -11.5846    0.5324  -11.5954    0.5521
  7.700  -11.5616    0.4964  -11.6062    0.5356  -11.5699    0.5219  -11.5786    0.4856  -11.5383    0.5290  -11.5490    0.5484
  7.710  -11.5153    0.4931  -11.5599    0.5321  -11.5236    0.5186  -11.5323    0.4824  -11.4922    0.5256  -11.5028    0.5449
  7.720  -11.4693    0.4899  -11.5138    0.5286  -11.4775    0.5153  -11.4862    0.4792  -11.4464    0.5222  -11.4569    0.5413
  7.730  -11.4235    0.4867  -11.4680    0.5252  -11.4318    0.5120  -11.4405    0.4760  -11.4008    0.5189  -11.4113    0.5378
  7.740  -11.3780    0.4836  -11.4225    0.5218  -11.3862    0.5088  -11.3949    0.4729  -11.3555    0.5156  -11.3659    0.5344
  7.750  -11.3328    0.4805  -11.3772    0.5184  -11.3410    0.5056  -11.3497    0.4698  -11.3105    0.5124  -11.3208    0.5310
  7.760  -11.2878    0.4774  -11.3322    0.5151  -11.2960    0.5024  -11.3047    0.4667  -11.2657    0.5092  -11.2759    0.5276
  7.770  -11.2431    0.4744  -11.2874    0.5118  -11.2512    0.4992  -11.2599    0.4637  -11.2211    0.5060  -11.2313    0.5243
  7.780  -11.1986    0.4714  -11.2429    0.5086  -11.2067    0.4962  -11.2154    0.4607  -11.1768    0.5029  -11.1870    0.5210
  7.790  -11.1543    0.4684  -11.1986    0.5054  -11.1625    0.4931  -11.1712    0.4578  -11.1328    0.4998  -11.1428    0.5177
  7.800  -11.1103    0.4655  -11.1546    0.5022  -11.1185    0.4901  -11.1271    0.4549  -11.0890    0.4968  -11.0990    0.5145
  7.810  -11.0666    0.4626  -11.1109    0.4991  -11.0747    0.4871  -11.0834    0.4520  -11.0454    0.4937  -11.0553    0.5113
  7.820  -11.0231    0.4598  -11.0673    0.4960  -11.0311    0.4841  -11.0398    0.4491  -11.0021    0.4907  -11.0119    0.5082
  7.830  -10.9798    0.4569  -11.0240    0.4929  -10.9878    0.4812  -10.9965    0.4463  -10.9590    0.4878  -10.9688    0.5051
  7.840  -10.9367    0.4541  -10.9810    0.4899  -10.9448    0.4783  -10.9535    0.4435  -10.9161    0.4849  -10.9258    0.5020
  7.850  -10.8939    0.4514  -10.9382    0.4869  -10.9019    0.4754  -10.9106    0.4407  -10.8735    0.4820  -10.8831    0.4990
  7.860  -10.8513    0.4487  -10.8956    0.4839  -10.8593    0.4726  -10.8680    0.4380  -10.8311    0.4791  -10.8407    0.4960
  7.870  -10.8089    0.4460  -10.8532    0.4810  -10.8169    0.4698  -10.8256    0.4353  -10.7889    0.4763  -10.7984    0.4930
  7.880  -10.7668    0.4433  -10.8111    0.4781  -10.7748    0.4670  -10.7834    0.4326  -10.7470    0.4735  -10.7564    0.4901
  7.890  -10.7248    0.4407  -10.7692    0.4752  -10.7328    0.4643  -10.7415    0.4300  -10.7052    0.4707  -10.7146    0.4872
  7.900  -10.6831    0.4381  -10.7275    0.4723  -10.6911    0.4616  -10.6998    0.4274  -10.6637    0.4680  -10.6730    0.4843
  7.910  -10.6416    0.4355  -10.6861    0.4695  -10.6496    0.4589  -10.6583    0.4248  -10.6224    0.4653  -10.6316    0.4815
  7.920  -10.6003    0.4329  -10.6448    0.4668  -10.6083    0.4563  -10.6170    0.4222  -10.5813    0.4626  -10.5905    0.4787
  7.930  -10.5593    0.4304  -10.6038    0.4640  -10.5672    0.4537  -10.5759    0.4197  -10.5404    0.4600  -10.5495    0.4759
  7.940  -10.5184    0.4279  -10.5630    0.4613  -10.5263    0.4511  -10.5350    0.4172  -10.4997    0.4574  -10.5088    0.4732
  7.950  -10.4777    0.4255  -10.5224    0.4586  -10.4856    0.4485  -10.4943    0.4147  -10.4593    0.4548  -10.4682    0.4705
  7.960  -10.4373    0.4231  -10.4820    0.4560  -10.4451    0.4460  -10.4539    0.4123  -10.4190    0.4523  -10.4279    0.4678
  7.970  -10.3970    0.4207  -10.4418    0.4533  -10.4048    0.4435  -10.4136    0.4099  -10.3789    0.4498  -10.3878    0.4651
  7.980  -10.3570    0.4183  -10.4018    0.4507  -10.3648    0.4410  -10.3735    0.4075  -10.3390    0.4473  -10.3479    0.4625
  7.990  -10.3171    0.4160  -10.3621    0.4482  -10.3249    0.4386  -10.3337    0.4051  -10.2994    0.4448  -10.3081    0.4599
  8.000  -10.2774    0.4136  -10.3225    0.4456  -10.2852    0.4362  -10.2940    0.4028  -10.2599    0.4424  -10.2686    0.4574
  8.010  -10.2379    0.4114  -10.2831    0.4431  -10.2457    0.4338  -10.2545    0.4005  -10.2206    0.4400  -10.2293    0.4549
  8.020  -10.1987    0.4091  -10.2439    0.4406  -10.2064    0.4314  -10.2152    0.3982  -10.1815    0.4376  -10.1901    0.4524
  8.030  -10.1596    0.4069  -10.2049    0.4382  -10.1673    0.4291  -10.1761    0.3959  -10.1426    0.4353  -10.1511    0.4499
  8.040  -10.1206    0.4047  -10.1661    0.4357  -10.1283    0.4268  -10.1372    0.3937  -10.1039    0.4330  -10.1124    0.4475
  8.050  -10.0819    0.4025  -10.1275    0.4333  -10.0896    0.4245  -10.0985    0.3915  -10.0653    0.4307  -10.0738    0.4451
  8.060  -10.0433    0.4003  -10.0891    0.4310  -10.0510    0.4223  -10.0599    0.3893  -10.0270    0.4284  -10.0353    0.4427
  8.070  -10.0050    0.3982  -10.0508    0.4286  -10.0126    0.4201  -10.0215    0.3871   -9.9888    0.4262   -9.9971    0.4404
  8.080   -9.9668    0.3961  -10.0128    0.4263   -9.9744    0.4179   -9.9833    0.3850   -9.9508    0.4240   -9.9590    0.4380
  8.090   -9.9287    0.3940   -9.9749    0.4240   -9.9363    0.4157   -9.9453    0.3829   -9.9129    0.4218   -9.9212    0.4358
  8.100   -9.8909    0.3920   -9.9372    0.4217   -9.8985    0.4136   -9.9074    0.3808   -9.8753    0.4197   -9.8834    0.4335
  8.110   -9.8532    0.3900   -9.8997    0.4195   -9.8608    0.4114   -9.8698    0.3787   -9.8378    0.4175   -9.8459    0.4313
  8.120   -9.8157    0.3880   -9.8623    0.4173   -9.8232    0.4093   -9.8322    0.3767   -9.8005    0.4154   -9.8085    0.4291
  8.130   -9.7783    0.3860   -9.8251    0.4151   -9.7858    0.4073   -9.7949    0.3747   -9.7633    0.4134   -9.7713    0.4269
  8.140   -9.7411    0.3841   -9.7881    0.4129   -9.7486    0.4052   -9.7577    0.3727   -9.7263    0.4113   -9.7343    0.4247
  8.150   -9.7041    0.3822   -9.7513    0.4108   -9.7116    0.4032   -9.7207    0.3707   -9.6895    0.4093   -9.6974    0.4226
  8.160   -9.6672    0.3803   -9.7146    0.4086   -9.6747    0.4013   -9.6838    0.3687   -9.6528    0.4073   -9.6607    0.4205
  8.170   -9.6305    0.3784   -9.6781    0.4066   -9.6379    0.3993   -9.6471    0.3668   -9.6163    0.4054   -9.6241    0.4185
  8.180   -9.5939    0.3766   -9.6417    0.4045   -9.6013    0.3974   -9.6106    0.3649   -9.5799    0.4034   -9.5877    0.4164
  8.190   -9.5575    0.3747   -9.6055    0.4024   -9.5649    0.3954   -9.5741    0.3630   -9.5437    0.4015   -9.5514    0.4144
  8.200   -9.5212    0.3730   -9.5695    0.4004   -9.5286    0.3936   -9.5379    0.3612   -9.5076    0.3996   -9.5153    0.4124
  8.210   -9.4851    0.3712   -9.5336    0.3984   -9.4925    0.3917   -9.5018    0.3593   -9.4717    0.3978   -9.4794    0.4105
  8.220   -9.4491    0.3695   -9.4979    0.3965   -9.4565    0.3899   -9.4658    0.3575   -9.4360    0.3959   -9.4436    0.4085
  8.230   -9.4133    0.3677   -9.4623    0.3945   -9.4206    0.3881   -9.4300    0.3557   -9.4003    0.3941   -9.4079    0.4067
  8.240   -9.3776    0.3661   -9.4269    0.3926   -9.3849    0.3863   -9.3943    0.3540   -9.3649    0.3923   -9.3724    0.4048
  8.250   -9.3420    0.3644   -9.3916    0.3907   -9.3493    0.3845   -9.3588    0.3522   -9.3295    0.3906   -9.3370    0.4029
  8.260   -9.3066    0.3628   -9.3565    0.3888   -9.3139    0.3828   -9.3234    0.3505   -9.2943    0.3889   -9.3017    0.4011
  8.270   -9.2713    0.3612   -9.3215    0.3870   -9.2786    0.3811   -9.2881    0.3488   -9.2592    0.3872   -9.2666    0.3993
  8.280   -9.2362    0.3596   -9.2867    0.3852   -9.2434    0.3794   -9.2530    0.3471   -9.2243    0.3855   -9.2316    0.3976
  8.290   -9.2011    0.3580   -9.2520    0.3834   -9.2083    0.3778   -9.2180    0.3455   -9.1895    0.3838   -9.1968    0.3958
  8.300   -9.1662    0.3565   -9.2174    0.3816   -9.1734    0.3761   -9.1831    0.3439   -9.1548    0.3822   -9.1621    0.3941
  8.310   -9.1314    0.3550   -9.1830    0.3798   -9.1386    0.3745   -9.1484    0.3422   -9.1203    0.3806   -9.1275    0.3924
  8.320   -9.0968    0.3535   -9.1487    0.3781   -9.1039    0.3730   -9.1137    0.3407   -9.0858    0.3791   -9.0930    0.3908
  8.330   -9.0622    0.3520   -9.1145    0.3764   -9.0693    0.3714   -9.0792    0.3391   -9.0515    0.3775   -9.0587    0.3892
  8.340   -9.0278    0.3506   -9.0805    0.3747   -9.0349    0.3699   -9.0448    0.3376   -9.0173    0.3760   -9.0244    0.3876
  8.350   -8.9935    0.3492   -9.0466    0.3731   -9.0005    0.3684   -9.0105    0.3360   -8.9833    0.3745   -8.9903    0.3860
  8.360   -8.9593    0.3479   -9.0128    0.3714   -8.9663    0.3669   -8.9764    0.3345   -8.9493    0.3731   -8.9563    0.3845
  8.370   -8.9252    0.3465   -8.9791    0.3698   -8.9322    0.3655   -8.9423    0.3331   -8.9154    0.3717   -8.9224    0.3830
  8.380   -8.8912    0.3452   -8.9455    0.3682   -8.8982    0.3641   -8.9083    0.3316   -8.8817    0.3703   -8.8886    0.3815
  8.390   -8.8573    0.3439   -8.9121    0.3667   -8.8642    0.3627   -8.8745    0.3302   -8.8481    0.3689   -8.8550    0.3801
  8.400   -8.8235    0.3426   -8.8788    0.3651   -8.8304    0.3614   -8.8408    0.3288   -8.8145    0.3676   -8.8214    0.3787
  8.410   -8.7898    0.3414   -8.8456    0.3636   -8.7967    0.3600   -8.8071    0.3274   -8.7811    0.3663   -8.7879    0.3773
  8.420   -8.7562    0.3402   -8.8125    0.3621   -8.7631    0.3587   -8.7736    0.3261   -8.7478    0.3650   -8.7546    0.3759
  8.430   -8.7227    0.3391   -8.7795    0.3607   -8.7295    0.3575   -8.7401    0.3247   -8.7145    0.3637   -8.7213    0.3746
  8.440   -8.6892    0.3379   -8.7467    0.3593   -8.6961    0.3562   -8.7067    0.3234   -8.6814    0.3625   -8.6881    0.3733
  8.450   -8.6559    0.3368   -8.7139    0.3578   -8.6627    0.3550   -8.6734    0.3222   -8.6483    0.3614   -8.6550    0.3721
  8.460   -8.6226    0.3357   -8.6812    0.3565   -8.6294    0.3539   -8.6402    0.3209   -8.6153    0.3602   -8.6220    0.3708
  8.470   -8.5895    0.3347   -8.6487    0.3551   -8.5962    0.3527   -8.6071    0.3197   -8.5825    0.3591   -8.5891    0.3696
  8.480   -8.5564    0.3337   -8.6162    0.3538   -8.5631    0.3516   -8.5741    0.3185   -8.5497    0.3580   -8.5563    0.3685
  8.490   -8.5233    0.3327   -8.5838    0.3525   -8.5300    0.3505   -8.5411    0.3173   -8.5169    0.3570   -8.5235    0.3674
  8.500   -8.4904    0.3318   -8.5515    0.3512   -8.4970    0.3495   -8.5082    0.3161   -8.4843    0.3559   -8.4908    0.3663
  8.510   -8.4575    0.3308   -8.5193    0.3499   -8.4641    0.3485   -8.4754    0.3150   -8.4517    0.3550   -8.4582    0.3652
  8.520   -8.4246    0.3300   -8.4872    0.3487   -8.4312    0.3475   -8.4426    0.3139   -8.4192    0.3540   -8.4257    0.3642
  8.530   -8.3918    0.3291   -8.4552    0.3475   -8.3984    0.3466   -8.4099    0.3129   -8.3867    0.3531   -8.3932    0.3633
  8.540   -8.3591    0.3283   -8.4233    0.3464   -8.3656    0.3457   -8.3773    0.3118   -8.3543    0.3523   -8.3608    0.3623
  8.550   -8.3264    0.3276   -8.3914    0.3452   -8.3329    0.3448   -8.3447    0.3108   -8.3220    0.3514   -8.3284    0.3614
  8.560   -8.2938    0.3269   -8.3596    0.3441   -8.3003    0.3440   -8.3121    0.3098   -8.2897    0.3506   -8.2961    0.3606
  8.570   -8.2612    0.3262   -8.3279    0.3431   -8.2676    0.3432   -8.2796    0.3089   -8.2575    0.3499   -8.2638    0.3598
  8.580   -8.2286    0.3256   -8.2962    0.3420   -8.2350    0.3425   -8.2472    0.3080   -8.2253    0.3492   -8.2316    0.3590
  8.590   -8.1961    0.3250   -8.2646    0.3410   -8.2025    0.3418   -8.2148    0.3071   -8.1932    0.3485   -8.1995    0.3583
  8.600   -8.1636    0.3244   -8.2331    0.3400   -8.1699    0.3411   -8.1824    0.3062   -8.1611    0.3479   -8.1673    0.3576
  8.610   -8.1312    0.3239   -8.2017    0.3391   -8.1374    0.3405   -8.1500    0.3054   -8.1290    0.3474   -8.1352    0.3570
  8.620   -8.0987    0.3235   -8.1703    0.3382   -8.1049    0.3399   -8.1177    0.3046   -8.0970    0.3469   -8.1032    0.3564
  8.630   -8.0663    0.3231   -8.1389    0.3373   -8.0724    0.3394   -8.0853    0.3039   -8.0650    0.3464   -8.0711    0.3559
  8.640   -8.0338    0.3227   -8.1076    0.3364   -8.0400    0.3390   -8.0530    0.3032   -8.0330    0.3460   -8.0391    0.3554
  8.650   -8.0014    0.3224   -8.0763    0.3356   -8.0075    0.3386   -8.0207    0.3025   -8.0010    0.3456   -8.0071    0.3550
  8.660   -7.9690    0.3222   -8.0451    0.3348   -7.9750    0.3382   -7.9884    0.3019   -7.9691    0.3453   -7.9751    0.3547
  8.670   -7.9365    0.3220   -8.0139    0.3341   -7.9425    0.3379   -7.9561    0.3013   -7.9371    0.3451   -7.9431    0.3544
  8.680   -7.9041    0.3219   -7.9828    0.3334   -7.9100    0.3377   -7.9238    0.3008   -7.9051    0.3449   -7.9112    0.3541
  8.690   -7.8716    0.3219   -7.9517    0.3328   -7.8775    0.3375   -7.8914    0.3003   -7.8732    0.3448   -7.8792    0.3539
  8.700   -7.8391    0.3219   -7.9206    0.3322   -7.8449    0.3374   -7.8590    0.2998   -7.8412    0.3447   -7.8472    0.3538
  8.710   -7.8065    0.3220   -7.8895    0.3316   -7.8123    0.3374   -7.8266    0.2994   -7.8092    0.3448   -7.8151    0.3538
  8.720   -7.7739    0.3221   -7.8585    0.3311   -7.7796    0.3374   -7.7942    0.2991   -7.7772    0.3449   -7.7831    0.3538
  8.730   -7.7413    0.3223   -7.8274    0.3306   -7.7469    0.3375   -7.7617    0.2988   -7.7451    0.3450   -7.7510    0.3539
  8.740   -7.7086    0.3227   -7.7964    0.3302   -7.7141    0.3377   -7.7292    0.2985   -7.7130    0.3453   -7.7189    0.3541
  8.750   -7.6758    0.3231   -7.7654    0.3298   -7.6813    0.3379   -7.6966    0.2984   -7.6809    0.3456   -7.6867    0.3544
  8.760   -7.6429    0.3236   -7.7343    0.3295   -7.6484    0.3383   -7.6639    0.2982   -7.6487    0.3460   -7.6545    0.3548
  8.770   -7.6100    0.3241   -7.7033    0.3292   -7.6154    0.3387   -7.6311    0.2982   -7.6164    0.3465   -7.6222    0.3552
  8.780   -7.5770    0.3248   -7.6722    0.3290   -7.5822    0.3393   -7.5982    0.2982   -7.5841    0.3471   -7.5899    0.3558
  8.790   -7.5438    0.3256   -7.6412    0.3288   -7.5490    0.3399   -7.5653    0.2983   -7.5517    0.3479   -7.5574    0.3565
  8.800   -7.5105    0.3265   -7.6101    0.3287   -7.5156    0.3406   -7.5322    0.2985   -7.5192    0.3487   -7.5249    0.3572
  8.810   -7.4771    0.3275   -7.5789    0.3287   -7.4821    0.3415   -7.4990    0.2987   -7.4866    0.3496   -7.4923    0.3581
  8.820   -7.4436    0.3287   -7.5477    0.3287   -7.4485    0.3425   -7.4657    0.2990   -7.4539    0.3507   -7.4596    0.3591
  8.830   -7.4099    0.3300   -7.5165    0.3288   -7.4147    0.3436   -7.4322    0.2995   -7.4210    0.3518   -7.4267    0.3602
  8.840   -7.3760    0.3314   -7.4852    0.3290   -7.3807    0.3448   -7.3985    0.3000   -7.3881    0.3532   -7.3937    0.3615
  8.850   -7.3420    0.3330   -7.4539    0.3292   -7.3465    0.3462   -7.3647    0.3006   -7.3550    0.3546   -7.3606    0.3629
  8.860   -7.3077    0.3347   -7.4225    0.3296   -7.3121    0.3477   -7.3306    0.3013   -7.3217    0.3562   -7.3273    0.3645
  8.870   -7.2733    0.3366   -7.3910    0.3300   -7.2775    0.3494   -7.2964    0.3022   -7.2882    0.3580   -7.2939    0.3662
  8.880   -7.2386    0.3387   -7.3594    0.3305   -7.2426    0.3513   -7.2619    0.3031   -7.2546    0.3600   -7.2602    0.3681
  8.890   -7.2036    0.3410   -7.3277    0.3311   -7.2075    0.3534   -7.2272    0.3042   -7.2208    0.3621   -7.2264    0.3702
  8.900   -7.1684    0.3435   -7.2959    0.3318   -7.1721    0.3557   -7.1921    0.3055   -7.1867    0.3645   -7.1923    0.3725
  8.910   -7.1328    0.3462   -7.2639    0.3326   -7.1364    0.3581   -7.1568    0.3069   -7.1525    0.3670   -7.1580    0.3750
  8.920   -7.0970    0.3492   -7.2319    0.3335   -7.1003    0.3609   -7.1212    0.3085   -7.1179    0.3698   -7.1234    0.3778
  8.930   -7.0608    0.3524   -7.1997    0.3345   -7.0639    0.3638   -7.0852    0.3102   -7.0831    0.3728   -7.0886    0.3808
  8.940   -7.0242    0.3559   -7.1673    0.3357   -7.0271    0.3671   -7.0489    0.3121   -7.0480    0.3761   -7.0535    0.3840
  8.950   -6.9873    0.3597   -7.1348    0.3370   -6.9898    0.3706   -7.0121    0.3143   -7.0126    0.3797   -7.0181    0.3876
  8.960   -6.9499    0.3639   -7.1021    0.3384   -6.9522    0.3745   -6.9750    0.3166   -6.9768    0.3836   -6.9823    0.3914
  8.970   -6.9120    0.3684   -7.0692    0.3400   -6.9140    0.3787   -6.9373    0.3193   -6.9407    0.3878   -6.9462    0.3956
  8.980   -6.8737    0.3733   -7.0361    0.3417   -6.8753    0.3833   -6.8992    0.3221   -6.9042    0.3924   -6.9096    0.4002
  8.990   -6.8349    0.3787   -7.0027    0.3437   -6.8361    0.3883   -6.8605    0.3253   -6.8672    0.3974   -6.8727    0.4051
  9.000   -6.7954    0.3845   -6.9691    0.3458   -6.7962    0.3938   -6.8212    0.3288   -6.8298    0.4029   -6.8353    0.4105
  9.010   -6.7554    0.3909   -6.9353    0.3480   -6.7557    0.3997   -6.7812    0.3327   -6.7920    0.4087   -6.7974    0.4163
  9.020   -6.7147    0.3978   -6.9011    0.3506   -6.7145    0.4062   -6.7406    0.3369   -6.7536    0.4151   -6.7590    0.4227
  9.030   -6.6733    0.4053   -6.8666    0.3533   -6.6725    0.4133   -6.6992    0.3416   -6.7146    0.4221   -6.7200    0.4296
  9.040   -6.6312    0.4135   -6.8318    0.3563   -6.6297    0.4211   -6.6571    0.3467   -6.6751    0.4297   -6.6805    0.4372
  9.050   -6.5882    0.4225   -6.7967    0.3595   -6.5861    0.4296   -6.6140    0.3524   -6.6349    0.4379   -6.6403    0.4454
  9.060   -6.5444    0.4323   -6.7611    0.3630   -6.5414    0.4389   -6.5700    0.3586   -6.5940    0.4470   -6.5994    0.4543
  9.070   -6.4996    0.4430   -6.7252    0.3668   -6.4958    0.4490   -6.5250    0.3655   -6.5524    0.4568   -6.5578    0.4641
  9.080   -6.4539    0.4547   -6.6888    0.3710   -6.4490    0.4602   -6.4788    0.3731   -6.5101    0.4675   -6.5154    0.4748
  9.090   -6.4070    0.4676   -6.6519    0.3755   -6.4010    0.4726   -6.4314    0.3815   -6.4669    0.4793   -6.4722    0.4865
  9.100   -6.3590    0.4818   -6.6145    0.3804   -6.3518    0.4862   -6.3827    0.3908   -6.4228    0.4921   -6.4282    0.4994
  9.110   -6.3098    0.4975   -6.5765    0.3858   -6.3011    0.5012   -6.3326    0.4012   -6.3777    0.5062   -6.3831    0.5135
  9.120   -6.2592    0.5147   -6.5380    0.3916   -6.2489    0.5178   -6.2808    0.4127   -6.3317    0.5218   -6.3371    0.5289
  9.130   -6.2072    0.5338   -6.4988    0.3979   -6.1950    0.5362   -6.2274    0.4256   -6.2846    0.5389   -6.2900    0.5460
  9.140   -6.1537    0.5549   -6.4589    0.4048   -6.1394    0.5567   -6.1721    0.4399   -6.2364    0.5577   -6.2418    0.5649
  9.150   -6.0986    0.5784   -6.4183    0.4122   -6.0818    0.5795   -6.1147    0.4561   -6.1870    0.5786   -6.1924    0.5857
  9.160   -6.0418    0.6046   -6.3769    0.4204   -6.0222    0.6050   -6.0551    0.4742   -6.1364    0.6017   -6.1418    0.6088
  9.170   -5.9833    0.6338   -6.3347    0.4293   -5.9603    0.6337   -5.9930    0.4947   -6.0845    0.6274   -6.0899    0.6344
  9.180   -5.9228    0.6665   -6.2915    0.4390   -5.8961    0.6659   -5.9283    0.5178   -6.0313    0.6560   -6.0368    0.6630
  9.190   -5.8604    0.7032   -6.2473    0.4496   -5.8293    0.7023   -5.8606    0.5442   -5.9768    0.6879   -5.9823    0.6949
  9.200   -5.7960    0.7445   -6.2021    0.4612   -5.7598    0.7436   -5.7897    0.5742   -5.9210    0.7237   -5.9264    0.7306
  9.210   -5.7296    0.7912   -6.1557    0.4739   -5.6875    0.7906   -5.7154    0.6087   -5.8639    0.7637   -5.8694    0.7706
  9.220   -5.6613    0.8441   -6.1081    0.4879   -5.6123    0.8443   -5.6373    0.6484   -5.8057    0.8088   -5.8112    0.8157
  9.230   -5.5913    0.9042   -6.0591    0.5032   -5.5342    0.9060   -5.5553    0.6944   -5.7466    0.8597   -5.7521    0.8665
  9.240   -5.5198    0.9726   -6.0086    0.5201   -5.4533    0.9771   -5.4690    0.7479   -5.6869    0.9172   -5.6925    0.9240
  9.250   -5.4473    1.0509   -5.9566    0.5388   -5.3699    1.0594   -5.3785    0.8105   -5.6271    0.9823   -5.6327    0.9891
  9.260   -5.3747    1.1405   -5.9028    0.5595   -5.2846    1.1551   -5.2835    0.8841   -5.5679    1.0562   -5.5736    1.0630
  9.270   -5.3029    1.2433   -5.8472    0.5825   -5.1985    1.2670   -5.1846    0.9712   -5.5104    1.1402   -5.5161    1.1469
  9.280   -5.2338    1.3613   -5.7896    0.6080   -5.1133    1.3980   -5.0824    1.0748   -5.4561    1.2355   -5.4619    1.2422
  9.290   -5.1698    1.4969   -5.7297    0.6366   -5.0317    1.5520   -4.9784    1.1984   -5.4070    1.3436   -5.4128    1.3504
  9.300   -5.1142    1.6524   -5.6674    0.6685   -4.9581    1.7330   -4.8751    1.3465   -5.3660    1.4658   -5.3719    1.4725
  9.310   -5.0718    1.8297   -5.6024    0.7045   -4.8988    1.9452   -4.7768    1.5239   -5.3367    1.6030   -5.3426    1.6097
  9.320   -5.0491    2.0302   -5.5345    0.7453   -4.8633    2.1925   -4.6904    1.7358   -5.3239    1.7552   -5.3300    1.7619
  9.330   -5.0541    2.2541   -5.4635    0.7917   -4.8649    2.4765   -4.6261    1.9867   -5.3337    1.9212   -5.3399    1.9280
  9.340   -5.0972    2.4985   -5.3892    0.8449   -4.9213    2.7948   -4.5989    2.2787   -5.3726    2.0975   -5.3790    2.1044
  9.350   -5.1898    2.7567   -5.3114    0.9066   -5.0536    3.1367   -4.6280    2.6084   -5.4476    2.2774   -5.4543    2.2843
  9.360   -5.3429    3.0159   -5.2304    0.9786   -5.2827    3.4796   -4.7355    2.9623   -5.5637    2.4502   -5.5708    2.4571
  9.370   -5.5634    3.2565   -5.1469    1.0635   -5.6215    3.7858   -4.9403    3.3138   -5.7218    2.6014   -5.7294    2.6082
  9.380   -5.8498    3.4533   -5.0626    1.1639   -6.0631    4.0063   -5.2483    3.6225   -5.9158    2.7150   -5.9239    2.7216
  9.390   -6.1878    3.5810   -4.9800    1.2823   -6.5722    4.0949   -5.6426    3.8442   -6.1313    2.7778   -6.1400    2.7840
  9.400   -6.5505    3.6221   -4.9025    1.4209   -7.0888    4.0278   -6.0815    3.9467   -6.3477    2.7847   -6.3569    2.7902
  9.410   -6.9051    3.5742   -4.8341    1.5812   -7.5473    3.8175   -6.5117    3.9254   -6.5443    2.7414   -6.5538    2.7461
  9.420   -7.2225    3.4502   -4.7795    1.7644   -7.9012    3.5072   -6.8877    3.8039   -6.7062    2.6624   -6.7158    2.6661
  9.430   -7.4850    3.2727   -4.7440    1.9714   -8.1341    3.1514   -7.1864    3.6210   -6.8277    2.5659   -6.8371    2.5687
  9.440   -7.6872    3.0661   -4.7344    2.2025   -8.2562    2.7971   -7.4071    3.4148   -6.9113    2.4687   -6.9204    2.4706
  9.450   -7.8332    2.8507   -4.7597    2.4568   -8.2914    2.4748   -7.5639    3.2127   -6.9654    2.3835   -6.9740    2.3846
  9.460   -7.9326    2.6403   -4.8308    2.7300   -8.2664    2.1997   -7.6761    3.0293   -7.0015    2.3174   -7.0095    2.3179
  9.470   -7.9963    2.4429   -4.9595    3.0133   -8.2053    1.9754   -7.7627    2.8682   -7.0318    2.2725   -7.0391    2.2724
  9.480   -8.0343    2.2610   -5.1565    3.2912   -8.1273    1.7988   -7.8385    2.7257   -7.0676    2.2458   -7.0742    2.2453
  9.490   -8.0549    2.0940   -5.4272    3.5417   -8.0467    1.6630   -7.9125    2.5936   -7.1179    2.2299   -7.1236    2.2291
  9.500   -8.0634    1.9392   -5.7676    3.7377   -7.9730    1.5586   -7.9880    2.4620   -7.1870    2.2142   -7.1919    2.2133
  9.510   -8.0623    1.7936   -6.1607    3.8532   -7.9115    1.4755   -8.0620    2.3221   -7.2741    2.1872   -7.2782    2.1863
  9.520   -8.0521    1.6546   -6.5775    3.8706   -7.8631    1.4043   -8.1277    2.1694   -7.3723    2.1392   -7.3756    2.1385
  9.530   -8.0323    1.5216   -6.9827    3.7867   -7.8255    1.3374   -8.1769    2.0042   -7.4710    2.0655   -7.4737    2.0652
  9.540   -8.0023    1.3952   -7.3438    3.6147   -7.7943    1.2703   -8.2035    1.8316   -7.5594    1.9672   -7.5615    1.9673
  9.550   -7.9625    1.2767   -7.6392    3.3785   -7.7652    1.2013   -8.2049    1.6589   -7.6290    1.8501   -7.6307    1.8507
  9.560   -7.9141    1.1677   -7.8601    3.1062   -7.7346    1.1309   -8.1824    1.4934   -7.6756    1.7224   -7.6770    1.7235
  9.570   -7.8590    1.0689   -8.0093    2.8223   -7.7005    1.0608   -8.1400    1.3405   -7.6990    1.5920   -7.7002    1.5935
  9.580   -7.7994    0.9807   -8.0964    2.5453   -7.6623    0.9927   -8.0827    1.2029   -7.7015    1.4650   -7.7026    1.4670
  9.590   -7.7371    0.9025   -8.1338    2.2866   -7.6202    0.9281   -8.0153    1.0816   -7.6869    1.3456   -7.6880    1.3480
  9.600   -7.6737    0.8336   -8.1336    2.0518   -7.5750    0.8678   -7.9419    0.9761   -7.6592    1.2360   -7.6603    1.2387
  9.610   -7.6103    0.7731   -8.1063    1.8429   -7.5275    0.8124   -7.8656    0.8850   -7.6219    1.1369   -7.6230    1.1398
  9.620   -7.5478    0.7199   -8.0604    1.6591   -7.4785    0.7617   -7.7888    0.8066   -7.5780    1.0482   -7.5792    1.0514
  9.630   -7.4867    0.6731   -8.0023    1.4986   -7.4289    0.7158   -7.7129    0.7391   -7.5298    0.9693   -7.5311    0.9726
  9.640   -7.4274    0.6317   -7.9365    1.3588   -7.3791    0.6742   -7.6389    0.6809   -7.4790    0.8993   -7.4804    0.9028
  9.650   -7.3698    0.5951   -7.8666    1.2373   -7.3297    0.6367   -7.5672    0.6307   -7.4270    0.8372   -7.4285    0.8408
  9.660   -7.3143    0.5625   -7.7947    1.1315   -7.2808    0.6028   -7.4983    0.5871   -7.3747    0.7821   -7.3762    0.7858
  9.670   -7.2607    0.5334   -7.7226    1.0392   -7.2328    0.5722   -7.4322    0.5491   -7.3225    0.7331   -7.3241    0.7370
  9.680   -7.2089    0.5073   -7.6513    0.9586   -7.1858    0.5444   -7.3689    0.5158   -7.2711    0.6895   -7.2727    0.6934
  9.690   -7.1591    0.4838   -7.5814    0.8879   -7.1399    0.5193   -7.3083    0.4866   -7.2206    0.6505   -7.2223    0.6545
  9.700   -7.1109    0.4626   -7.5134    0.8257   -7.0951    0.4965   -7.2503    0.4607   -7.1713    0.6156   -7.1730    0.6197
  9.710   -7.0644    0.4434   -7.4476    0.7708   -7.0514    0.4757   -7.1948    0.4378   -7.1232    0.5843   -7.1250    0.5884
  9.720   -7.0195    0.4259   -7.3840    0.7221   -7.0089    0.4568   -7.1417    0.4173   -7.0764    0.5560   -7.0782    0.5601
  9.730   -6.9761    0.4100   -7.3227    0.6789   -6.9675    0.4395   -7.0906    0.3990   -7.0309    0.5304   -7.0328    0.5346
  9.740   -6.9341    0.3954   -7.2637    0.6403   -6.9272    0.4236   -7.0416    0.3825   -6.9866    0.5072   -6.9886    0.5114
  9.750   -6.8933    0.3819   -7.2069    0.6057   -6.8879    0.4089   -6.9945    0.3676   -6.9437    0.4861   -6.9457    0.4903
  9.760   -6.8538    0.3696   -7.1523    0.5746   -6.8496    0.3955   -6.9491    0.3541   -6.9019    0.4669   -6.9040    0.4711
  9.770   -6.8154    0.3582   -7.0996    0.5466   -6.8123    0.3830   -6.9054    0.3418   -6.8614    0.4493   -6.8634    0.4535
  9.780   -6.7781    0.3476   -7.0489    0.5212   -6.7760    0.3715   -6.8631    0.3306   -6.8219    0.4331   -6.8240    0.4373
  9.790   -6.7418    0.3378   -7.0000    0.4983   -6.7405    0.3609   -6.8223    0.3203   -6.7836    0.4183   -6.7857    0.4225
  9.800   -6.7065    0.3287   -6.9528    0.4773   -6.7058    0.3509   -6.7827    0.3109   -6.7462    0.4045   -6.7483    0.4088
  9.810   -6.6720    0.3202   -6.9073    0.4582   -6.6720    0.3417   -6.7444    0.3022   -6.7098    0.3919   -6.7120    0.3961
  9.820   -6.6384    0.3123   -6.8632    0.4408   -6.6389    0.3331   -6.7072    0.2942   -6.6743    0.3801   -6.6765    0.3844
  9.830   -6.6056    0.3049   -6.8206    0.4248   -6.6066    0.3250   -6.6710    0.2867   -6.6398    0.3692   -6.6419    0.3735
  9.840   -6.5735    0.2979   -6.7794    0.4100   -6.5749    0.3175   -6.6359    0.2798   -6.6060    0.3591   -6.6082    0.3633
  9.850   -6.5422    0.2914   -6.7394    0.3964   -6.5439    0.3104   -6.6017    0.2734   -6.5730    0.3496   -6.5752    0.3539
  9.860   -6.5115    0.2852   -6.7005    0.3839   -6.5136    0.3037   -6.5683    0.2673   -6.5408    0.3408   -6.5430    0.3450
  9.870   -6.4814    0.2794   -6.6628    0.3722   -6.4838    0.2975   -6.5358    0.2617   -6.5093    0.3325   -6.5115    0.3367
  9.880   -6.4520    0.2739   -6.6262    0.3615   -6.4546    0.2915   -6.5040    0.2564   -6.4784    0.3248   -6.4807    0.3290
  9.890   -6.4231    0.2688   -6.5905    0.3514   -6.4259    0.2860   -6.4729    0.2515   -6.4482    0.3175   -6.4505    0.3217
  9.900   -6.3948    0.2639   -6.5557    0.3421   -6.3978    0.2807   -6.4426    0.2468   -6.4186    0.3106   -6.4209    0.3148
  9.910   -6.3669    0.2592   -6.5218    0.3333   -6.3701    0.2757   -6.4129    0.2424   -6.3896    0.3042   -6.3918    0.3083
  9.920   -6.3396    0.2548   -6.4888    0.3252   -6.3430    0.2709   -6.3838    0.2383   -6.3611    0.2981   -6.3634    0.3022
  9.930   -6.3127    0.2506   -6.4565    0.3175   -6.3162    0.2664   -6.3552    0.2344   -6.3331    0.2923   -6.3354    0.2964
  9.940   -6.2863    0.2466   -6.4250    0.3103   -6.2899    0.2621   -6.3272    0.2307   -6.3057    0.2868   -6.3080    0.2910
  9.950   -6.2603    0.2428   -6.3942    0.3035   -6.2640    0.2580   -6.2998    0.2271   -6.2787    0.2816   -6.2810    0.2858
  9.960   -6.2347    0.2392   -6.3640    0.2972   -6.2386    0.2541   -6.2728    0.2238   -6.2521    0.2767   -6.2545    0.2808
  9.970   -6.2095    0.2357   -6.3344    0.2912   -6.2134    0.2504   -6.2463    0.2206   -6.2260    0.2721   -6.2284    0.2762
  9.980   -6.1847    0.2324   -6.3055    0.2855   -6.1887    0.2469   -6.2202    0.2175   -6.2004    0.2676   -6.2027    0.2717
  9.990   -6.1602    0.2292   -6.2771    0.2801   -6.1643    0.2435   -6.1946    0.2146   -6.1751    0.2634   -6.1774    0.2674
 10.000   -6.1361    0.2261   -6.2492    0.2751   -6.1402    0.2402   -6.1694    0.2119   -6.1502    0.2593   -6.1525    0.2634
