# Macroscopic dielectric function obtained with the BS equation.
#  RPA L0 with KS energies and KS wavefunctions     LOCAL FIELD EFFECTS INCLUDED
# RESONANT-ONLY calculation
# Coulomb term constructed with full W(G1,G2)
# Scissor operator energy =  0.8000 [eV]
# Tolerance = -0.0010 0.0000
# npweps  = 113
# npwwfn  = 259
# nbands  = 8
# loband  = 2
# nkibz   = 3
# nkbz    = 8
# Lorentzian broadening =  0.0001 [eV]
# List of q-points for the optical limit:
# q =  0.938821, 0.000000, 0.000000, [Reduced coords] 
# q =  0.000000, 0.938821, 0.000000, [Reduced coords] 
# q =  0.000000, 0.000000, 0.938821, [Reduced coords] 
# q =  0.000000, 0.813043, 0.813043, [Reduced coords] 
# q =  0.813043, 0.000000, 0.813043, [Reduced coords] 
# q =  0.813043, 0.813043, 0.000000, [Reduced coords] 
# omega [eV]    RE(eps(q=1)) IM(eps(q=1) RE(eps(q=2) ) ... 
  0.000   28.3725    0.6928   28.3453    0.7436   28.3510    0.7417   28.3603    0.6891   28.3993    0.7509   28.3972    0.7538
  0.010   28.4600    0.6972   28.4326    0.7483   28.4383    0.7464   28.4477    0.6934   28.4869    0.7556   28.4848    0.7586
  0.020   28.5480    0.7016   28.5204    0.7530   28.5262    0.7511   28.5356    0.6978   28.5751    0.7604   28.5729    0.7634
  0.030   28.6365    0.7060   28.6088    0.7577   28.6146    0.7558   28.6241    0.7023   28.6638    0.7652   28.6617    0.7682
  0.040   28.7257    0.7106   28.6978    0.7625   28.7036    0.7606   28.7133    0.7068   28.7532    0.7701   28.7510    0.7731
  0.050   28.8154    0.7151   28.7874    0.7674   28.7932    0.7655   28.8029    0.7113   28.8431    0.7750   28.8409    0.7780
  0.060   28.9058    0.7197   28.8776    0.7723   28.8834    0.7703   28.8932    0.7159   28.9336    0.7800   28.9314    0.7829
  0.070   28.9967    0.7243   28.9683    0.7772   28.9742    0.7753   28.9841    0.7205   29.0247    0.7850   29.0225    0.7879
  0.080   29.0882    0.7290   29.0597    0.7822   29.0656    0.7802   29.0756    0.7252   29.1164    0.7900   29.1142    0.7930
  0.090   29.1804    0.7337   29.1516    0.7872   29.1576    0.7853   29.1677    0.7299   29.2087    0.7951   29.2065    0.7981
  0.100   29.2731    0.7385   29.2442    0.7923   29.2502    0.7904   29.2604    0.7347   29.3016    0.8003   29.2994    0.8033
  0.110   29.3665    0.7433   29.3374    0.7974   29.3434    0.7955   29.3537    0.7395   29.3952    0.8055   29.3930    0.8085
  0.120   29.4605    0.7482   29.4312    0.8026   29.4372    0.8007   29.4476    0.7443   29.4894    0.8107   29.4871    0.8138
  0.130   29.5551    0.7531   29.5257    0.8079   29.5317    0.8059   29.5422    0.7492   29.5842    0.8160   29.5819    0.8191
  0.140   29.6504    0.7581   29.6208    0.8132   29.6268    0.8112   29.6375    0.7542   29.6797    0.8214   29.6774    0.8245
  0.150   29.7464    0.7631   29.7165    0.8185   29.7226    0.8165   29.7333    0.7592   29.7758    0.8268   29.7735    0.8299
  0.160   29.8429    0.7682   29.8129    0.8239   29.8190    0.8219   29.8299    0.7642   29.8725    0.8323   29.8703    0.8354
  0.170   29.9402    0.7733   29.9100    0.8293   29.9161    0.8273   29.9270    0.7693   29.9700    0.8378   29.9677    0.8409
  0.180   30.0381    0.7784   30.0077    0.8349   30.0139    0.8328   30.0249    0.7745   30.0681    0.8434   30.0658    0.8465
  0.190   30.1367    0.7837   30.1061    0.8404   30.1123    0.8384   30.1234    0.7797   30.1668    0.8490   30.1646    0.8521
  0.200   30.2359    0.7889   30.2052    0.8460   30.2114    0.8440   30.2226    0.7850   30.2663    0.8547   30.2640    0.8578
  0.210   30.3359    0.7943   30.3049    0.8517   30.3112    0.8497   30.3225    0.7903   30.3665    0.8605   30.3642    0.8636
  0.220   30.4365    0.7997   30.4054    0.8574   30.4117    0.8554   30.4231    0.7957   30.4673    0.8663   30.4650    0.8694
  0.230   30.5379    0.8051   30.5065    0.8632   30.5128    0.8612   30.5244    0.8011   30.5689    0.8722   30.5665    0.8753
  0.240   30.6400    0.8106   30.6084    0.8691   30.6147    0.8670   30.6264    0.8066   30.6711    0.8781   30.6688    0.8813
  0.250   30.7428    0.8162   30.7110    0.8750   30.7173    0.8729   30.7292    0.8121   30.7741    0.8841   30.7718    0.8873
  0.260   30.8463    0.8218   30.8143    0.8810   30.8207    0.8789   30.8326    0.8177   30.8778    0.8902   30.8755    0.8933
  0.270   30.9505    0.8274   30.9183    0.8870   30.9247    0.8849   30.9368    0.8234   30.9823    0.8963   30.9799    0.8995
  0.280   31.0555    0.8332   31.0231    0.8931   31.0295    0.8910   31.0417    0.8291   31.0875    0.9025   31.0851    0.9057
  0.290   31.1612    0.8390   31.1286    0.8993   31.1351    0.8972   31.1474    0.8349   31.1935    0.9087   31.1911    0.9119
  0.300   31.2677    0.8448   31.2349    0.9055   31.2414    0.9034   31.2538    0.8408   31.3002    0.9151   31.2978    0.9183
  0.310   31.3750    0.8508   31.3419    0.9118   31.3485    0.9097   31.3610    0.8467   31.4076    0.9214   31.4052    0.9247
  0.320   31.4830    0.8567   31.4498    0.9182   31.4563    0.9161   31.4690    0.8526   31.5159    0.9279   31.5135    0.9311
  0.330   31.5919    0.8628   31.5584    0.9246   31.5650    0.9225   31.5778    0.8587   31.6249    0.9344   31.6225    0.9377
  0.340   31.7015    0.8689   31.6677    0.9311   31.6744    0.9290   31.6873    0.8648   31.7348    0.9410   31.7324    0.9443
  0.350   31.8119    0.8751   31.7779    0.9377   31.7846    0.9356   31.7977    0.8709   31.8454    0.9477   31.8430    0.9510
  0.360   31.9231    0.8813   31.8889    0.9443   31.8956    0.9422   31.9089    0.8772   31.9569    0.9544   31.9544    0.9577
  0.370   32.0351    0.8876   32.0007    0.9510   32.0075    0.9489   32.0208    0.8835   32.0691    0.9612   32.0667    0.9645
  0.380   32.1480    0.8940   32.1134    0.9578   32.1201    0.9557   32.1336    0.8898   32.1822    0.9681   32.1798    0.9714
  0.390   32.2617    0.9005   32.2268    0.9647   32.2336    0.9625   32.2473    0.8963   32.2962    0.9751   32.2937    0.9784
  0.400   32.3763    0.9070   32.3411    0.9716   32.3480    0.9695   32.3618    0.9028   32.4110    0.9821   32.4085    0.9854
  0.410   32.4917    0.9136   32.4563    0.9786   32.4632    0.9765   32.4771    0.9094   32.5266    0.9892   32.5241    0.9926
  0.420   32.6079    0.9203   32.5723    0.9857   32.5792    0.9836   32.5933    0.9160   32.6431    0.9964   32.6406    0.9998
  0.430   32.7251    0.9270   32.6892    0.9929   32.6962    0.9907   32.7104    0.9228   32.7605    1.0037   32.7580    1.0071
  0.440   32.8431    0.9338   32.8070    1.0001   32.8140    0.9980   32.8284    0.9296   32.8788    1.0111   32.8763    1.0144
  0.450   32.9621    0.9407   32.9257    1.0075   32.9327    1.0053   32.9472    0.9365   32.9980    1.0185   32.9955    1.0219
  0.460   33.0819    0.9477   33.0453    1.0149   33.0523    1.0127   33.0670    0.9434   33.1181    1.0260   33.1156    1.0294
  0.470   33.2026    0.9548   33.1658    1.0224   33.1728    1.0202   33.1877    0.9505   33.2391    1.0336   33.2366    1.0370
  0.480   33.3243    0.9619   33.2872    1.0300   33.2943    1.0278   33.3093    0.9576   33.3610    1.0413   33.3585    1.0447
  0.490   33.4469    0.9691   33.4096    1.0376   33.4167    1.0354   33.4319    0.9648   33.4839    1.0491   33.4814    1.0525
  0.500   33.5705    0.9764   33.5329    1.0454   33.5400    1.0432   33.5554    0.9721   33.6078    1.0570   33.6052    1.0604
  0.510   33.6950    0.9838   33.6571    1.0532   33.6643    1.0510   33.6798    0.9795   33.7326    1.0650   33.7300    1.0684
  0.520   33.8205    0.9913   33.7823    1.0612   33.7896    1.0589   33.8053    0.9869   33.8583    1.0730   33.8557    1.0764
  0.530   33.9470    0.9988   33.9085    1.0692   33.9158    1.0669   33.9317    0.9945   33.9851    1.0812   33.9825    1.0846
  0.540   34.0745    1.0065   34.0357    1.0773   34.0431    1.0751   34.0591    1.0021   34.1128    1.0894   34.1102    1.0929
  0.550   34.2030    1.0142   34.1639    1.0855   34.1713    1.0833   34.1875    1.0098   34.2416    1.0977   34.2390    1.1012
  0.560   34.3325    1.0220   34.2932    1.0938   34.3006    1.0916   34.3170    1.0177   34.3714    1.1062   34.3688    1.1097
  0.570   34.4630    1.0299   34.4234    1.1022   34.4308    1.1000   34.4474    1.0256   34.5022    1.1147   34.4996    1.1182
  0.580   34.5946    1.0380   34.5547    1.1107   34.5622    1.1085   34.5789    1.0336   34.6341    1.1234   34.6314    1.1269
  0.590   34.7272    1.0461   34.6870    1.1194   34.6945    1.1171   34.7115    1.0417   34.7670    1.1321   34.7644    1.1356
  0.600   34.8609    1.0543   34.8204    1.1281   34.8280    1.1258   34.8451    1.0499   34.9010    1.1409   34.8984    1.1445
  0.610   34.9957    1.0626   34.9549    1.1369   34.9625    1.1346   34.9799    1.0582   35.0361    1.1499   35.0334    1.1534
  0.620   35.1316    1.0710   35.0905    1.1458   35.0981    1.1435   35.1157    1.0666   35.1723    1.1589   35.1696    1.1625
  0.630   35.2686    1.0795   35.2272    1.1548   35.2348    1.1525   35.2526    1.0751   35.3096    1.1681   35.3069    1.1717
  0.640   35.4067    1.0881   35.3650    1.1640   35.3727    1.1616   35.3906    1.0837   35.4480    1.1774   35.4453    1.1810
  0.650   35.5459    1.0968   35.5039    1.1732   35.5117    1.1709   35.5298    1.0924   35.5876    1.1868   35.5849    1.1904
  0.660   35.6863    1.1056   35.6440    1.1826   35.6518    1.1802   35.6701    1.1012   35.7283    1.1963   35.7256    1.1999
  0.670   35.8279    1.1145   35.7852    1.1920   35.7931    1.1897   35.8116    1.1101   35.8702    1.2059   35.8675    1.2095
  0.680   35.9707    1.1236   35.9277    1.2016   35.9355    1.1993   35.9543    1.1191   36.0132    1.2157   36.0105    1.2193
  0.690   36.1146    1.1327   36.0713    1.2113   36.0792    1.2090   36.0982    1.1283   36.1575    1.2255   36.1548    1.2291
  0.700   36.2598    1.1420   36.2161    1.2212   36.2240    1.2188   36.2433    1.1375   36.3030    1.2355   36.3003    1.2391
  0.710   36.4061    1.1514   36.3621    1.2311   36.3701    1.2287   36.3896    1.1469   36.4497    1.2456   36.4470    1.2492
  0.720   36.5538    1.1609   36.5094    1.2412   36.5174    1.2388   36.5371    1.1564   36.5977    1.2558   36.5949    1.2595
  0.730   36.7026    1.1705   36.6579    1.2514   36.6660    1.2490   36.6859    1.1660   36.7469    1.2662   36.7441    1.2699
  0.740   36.8528    1.1803   36.8077    1.2617   36.8159    1.2593   36.8360    1.1758   36.8974    1.2767   36.8946    1.2804
  0.750   37.0042    1.1901   36.9588    1.2722   36.9670    1.2698   36.9874    1.1856   37.0492    1.2873   37.0464    1.2910
  0.760   37.1570    1.2001   37.1112    1.2828   37.1194    1.2804   37.1401    1.1956   37.2023    1.2981   37.1995    1.3018
  0.770   37.3111    1.2102   37.2649    1.2935   37.2732    1.2911   37.2941    1.2057   37.3568    1.3090   37.3539    1.3127
  0.780   37.4665    1.2205   37.4200    1.3044   37.4283    1.3019   37.4494    1.2160   37.5125    1.3201   37.5097    1.3238
  0.790   37.6232    1.2309   37.5764    1.3154   37.5847    1.3130   37.6061    1.2264   37.6697    1.3312   37.6669    1.3350
  0.800   37.7814    1.2414   37.7342    1.3265   37.7426    1.3241   37.7642    1.2369   37.8282    1.3426   37.8254    1.3463
  0.810   37.9410    1.2521   37.8933    1.3378   37.9018    1.3354   37.9237    1.2475   37.9882    1.3541   37.9853    1.3578
  0.820   38.1019    1.2629   38.0539    1.3493   38.0624    1.3468   38.0846    1.2583   38.1495    1.3657   38.1467    1.3695
  0.830   38.2643    1.2738   38.2159    1.3609   38.2245    1.3584   38.2469    1.2693   38.3123    1.3775   38.3094    1.3812
  0.840   38.4282    1.2849   38.3794    1.3726   38.3880    1.3701   38.4107    1.2804   38.4766    1.3894   38.4737    1.3932
  0.850   38.5935    1.2962   38.5443    1.3845   38.5529    1.3820   38.5760    1.2916   38.6423    1.4015   38.6394    1.4053
  0.860   38.7603    1.3075   38.7107    1.3966   38.7194    1.3941   38.7427    1.3030   38.8095    1.4138   38.8066    1.4176
  0.870   38.9287    1.3191   38.8786    1.4088   38.8874    1.4063   38.9110    1.3145   38.9783    1.4262   38.9754    1.4300
  0.880   39.0985    1.3308   39.0481    1.4212   39.0569    1.4187   39.0808    1.3262   39.1486    1.4388   39.1456    1.4426
  0.890   39.2700    1.3426   39.2191    1.4338   39.2279    1.4312   39.2521    1.3381   39.3204    1.4516   39.3175    1.4554
  0.900   39.4430    1.3547   39.3917    1.4465   39.4006    1.4440   39.4251    1.3501   39.4939    1.4645   39.4909    1.4684
  0.910   39.6176    1.3669   39.5659    1.4594   39.5748    1.4569   39.5996    1.3623   39.6689    1.4776   39.6660    1.4815
  0.920   39.7938    1.3792   39.7416    1.4725   39.7506    1.4699   39.7758    1.3747   39.8456    1.4909   39.8426    1.4948
  0.930   39.9717    1.3917   39.9191    1.4857   39.9281    1.4832   39.9536    1.3872   40.0239    1.5044   40.0209    1.5083
  0.940   40.1512    1.4044   40.0982    1.4992   40.1073    1.4966   40.1330    1.3999   40.2039    1.5181   40.2009    1.5220
  0.950   40.3325    1.4173   40.2789    1.5128   40.2881    1.5102   40.3142    1.4128   40.3856    1.5320   40.3826    1.5358
  0.960   40.5154    1.4304   40.4614    1.5266   40.4706    1.5240   40.4971    1.4258   40.5690    1.5460   40.5660    1.5499
  0.970   40.7001    1.4436   40.6457    1.5406   40.6549    1.5380   40.6817    1.4391   40.7542    1.5603   40.7512    1.5642
  0.980   40.8866    1.4570   40.8317    1.5548   40.8410    1.5522   40.8681    1.4525   40.9411    1.5747   40.9381    1.5786
  0.990   41.0749    1.4707   41.0194    1.5693   41.0288    1.5667   41.0563    1.4661   41.1299    1.5894   41.1268    1.5933
  1.000   41.2649    1.4845   41.2090    1.5839   41.2184    1.5813   41.2463    1.4800   41.3204    1.6043   41.3174    1.6082
  1.010   41.4569    1.4985   41.4005    1.5987   41.4099    1.5961   41.4381    1.4940   41.5129    1.6193   41.5098    1.6233
  1.020   41.6507    1.5127   41.5937    1.6137   41.6033    1.6111   41.6319    1.5082   41.7072    1.6347   41.7041    1.6386
  1.030   41.8464    1.5272   41.7889    1.6290   41.7985    1.6264   41.8275    1.5227   41.9034    1.6502   41.9003    1.6541
  1.040   42.0440    1.5418   41.9860    1.6445   41.9957    1.6418   42.0251    1.5373   42.1015    1.6659   42.0984    1.6699
  1.050   42.2436    1.5567   42.1851    1.6602   42.1948    1.6575   42.2246    1.5522   42.3016    1.6819   42.2986    1.6859
  1.060   42.4452    1.5718   42.3862    1.6761   42.3959    1.6735   42.4261    1.5673   42.5038    1.6981   42.5007    1.7021
  1.070   42.6488    1.5871   42.5892    1.6923   42.5990    1.6896   42.6296    1.5826   42.7079    1.7146   42.7048    1.7186
  1.080   42.8544    1.6026   42.7943    1.7087   42.8042    1.7060   42.8352    1.5981   42.9141    1.7313   42.9110    1.7353
  1.090   43.0621    1.6184   43.0015    1.7254   43.0114    1.7227   43.0428    1.6139   43.1224    1.7483   43.1192    1.7523
  1.100   43.2720    1.6344   43.2108    1.7423   43.2207    1.7396   43.2526    1.6299   43.3328    1.7655   43.3296    1.7695
  1.110   43.4840    1.6506   43.4222    1.7594   43.4322    1.7567   43.4645    1.6462   43.5453    1.7829   43.5422    1.7870
  1.120   43.6981    1.6671   43.6358    1.7769   43.6459    1.7742   43.6786    1.6627   43.7601    1.8007   43.7569    1.8047
  1.130   43.9145    1.6838   43.8515    1.7945   43.8617    1.7918   43.8949    1.6795   43.9770    1.8187   43.9739    1.8227
  1.140   44.1331    1.7009   44.0696    1.8125   44.0798    1.8098   44.1135    1.6965   44.1963    1.8370   44.1931    1.8410
  1.150   44.3540    1.7181   44.2899    1.8307   44.3002    1.8280   44.3343    1.7138   44.4178    1.8555   44.4146    1.8596
  1.160   44.5773    1.7357   44.5125    1.8493   44.5228    1.8465   44.5575    1.7313   44.6416    1.8744   44.6384    1.8785
  1.170   44.8029    1.7535   44.7374    1.8681   44.7479    1.8653   44.7830    1.7492   44.8678    1.8936   44.8646    1.8976
  1.180   45.0308    1.7716   44.9648    1.8872   44.9753    1.8844   45.0109    1.7673   45.0964    1.9130   45.0932    1.9171
  1.190   45.2613    1.7900   45.1946    1.9066   45.2051    1.9038   45.2413    1.7857   45.3275    1.9328   45.3243    1.9369
  1.200   45.4941    1.8086   45.4268    1.9263   45.4374    1.9235   45.4741    1.8044   45.5610    1.9529   45.5578    1.9570
  1.210   45.7295    1.8276   45.6615    1.9463   45.6722    1.9435   45.7094    1.8234   45.7971    1.9733   45.7939    1.9774
  1.220   45.9675    1.8469   45.8988    1.9667   45.9096    1.9639   45.9473    1.8427   46.0357    1.9940   46.0325    1.9981
  1.230   46.2080    1.8665   46.1387    1.9873   46.1495    1.9846   46.1878    1.8623   46.2770    2.0150   46.2737    2.0192
  1.240   46.4512    1.8864   46.3812    2.0083   46.3921    2.0056   46.4309    1.8823   46.5208    2.0364   46.5176    2.0406
  1.250   46.6971    1.9067   46.6263    2.0297   46.6373    2.0269   46.6767    1.9025   46.7674    2.0582   46.7642    2.0623
  1.260   46.9457    1.9272   46.8742    2.0514   46.8853    2.0486   46.9253    1.9232   47.0167    2.0803   47.0135    2.0845
  1.270   47.1971    1.9482   47.1249    2.0734   47.1360    2.0706   47.1766    1.9441   47.2689    2.1028   47.2656    2.1070
  1.280   47.4513    1.9694   47.3783    2.0959   47.3895    2.0931   47.4307    1.9654   47.5238    2.1256   47.5205    2.1298
  1.290   47.7084    1.9910   47.6347    2.1187   47.6459    2.1159   47.6878    1.9871   47.7816    2.1489   47.7783    2.1531
  1.300   47.9684    2.0130   47.8939    2.1418   47.9052    2.1390   47.9477    2.0091   48.0424    2.1725   48.0391    2.1767
  1.310   48.2314    2.0354   48.1561    2.1654   48.1675    2.1626   48.2106    2.0315   48.3061    2.1965   48.3028    2.2007
  1.320   48.4974    2.0582   48.4213    2.1894   48.4328    2.1866   48.4765    2.0543   48.5729    2.2210   48.5696    2.2252
  1.330   48.7664    2.0813   48.6896    2.2138   48.7011    2.2109   48.7456    2.0775   48.8428    2.2458   48.8394    2.2500
  1.340   49.0386    2.1048   48.9609    2.2386   48.9726    2.2357   49.0177    2.1011   49.1158    2.2711   49.1124    2.2753
  1.350   49.3140    2.1288   49.2355    2.2638   49.2472    2.2609   49.2930    2.1251   49.3920    2.2968   49.3886    2.3010
  1.360   49.5926    2.1531   49.5133    2.2895   49.5251    2.2866   49.5716    2.1495   49.6715    2.3230   49.6681    2.3272
  1.370   49.8746    2.1779   49.7943    2.3156   49.8062    2.3127   49.8535    2.1743   49.9542    2.3496   49.9509    2.3538
  1.380   50.1599    2.2032   50.0788    2.3421   50.0907    2.3393   50.1387    2.1996   50.2404    2.3767   50.2370    2.3809
  1.390   50.4486    2.2289   50.3666    2.3692   50.3786    2.3663   50.4274    2.2254   50.5300    2.4043   50.5266    2.4085
  1.400   50.7408    2.2550   50.6579    2.3967   50.6700    2.3938   50.7195    2.2516   50.8231    2.4324   50.8197    2.4366
  1.410   51.0365    2.2816   50.9527    2.4247   50.9649    2.4218   51.0152    2.2783   51.1197    2.4610   51.1163    2.4652
  1.420   51.3359    2.3087   51.2511    2.4533   51.2634    2.4504   51.3146    2.3054   51.4200    2.4901   51.4166    2.4943
  1.430   51.6389    2.3363   51.5532    2.4823   51.5656    2.4794   51.6176    2.3331   51.7240    2.5197   51.7206    2.5239
  1.440   51.9457    2.3645   51.8590    2.5119   51.8715    2.5090   51.9243    2.3613   52.0317    2.5499   52.0283    2.5541
  1.450   52.2563    2.3931   52.1686    2.5420   52.1812    2.5391   52.2349    2.3900   52.3433    2.5806   52.3399    2.5848
  1.460   52.5708    2.4222   52.4821    2.5727   52.4948    2.5698   52.5493    2.4192   52.6588    2.6119   52.6554    2.6161
  1.470   52.8893    2.4520   52.7996    2.6039   52.8123    2.6010   52.8678    2.4490   52.9783    2.6438   52.9749    2.6480
  1.480   53.2118    2.4822   53.1210    2.6358   53.1339    2.6328   53.1903    2.4794   53.3018    2.6763   53.2984    2.6805
  1.490   53.5384    2.5131   53.4466    2.6682   53.4596    2.6653   53.5169    2.5103   53.6295    2.7094   53.6261    2.7136
  1.500   53.8693    2.5445   53.7764    2.7012   53.7894    2.6983   53.8477    2.5418   53.9614    2.7431   53.9580    2.7474
  1.510   54.2044    2.5766   54.1104    2.7349   54.1236    2.7320   54.1828    2.5740   54.2976    2.7775   54.2942    2.7818
  1.520   54.5439    2.6092   54.4488    2.7692   54.4620    2.7663   54.5223    2.6067   54.6382    2.8126   54.6348    2.8168
  1.530   54.8878    2.6425   54.7916    2.8042   54.8049    2.8013   54.8662    2.6401   54.9833    2.8483   54.9799    2.8525
  1.540   55.2363    2.6765   55.1389    2.8399   55.1524    2.8370   55.2147    2.6742   55.3329    2.8847   55.3295    2.8890
  1.550   55.5894    2.7111   55.4909    2.8763   55.5044    2.8734   55.5678    2.7090   55.6872    2.9219   55.6838    2.9261
  1.560   55.9473    2.7465   55.8475    2.9134   55.8612    2.9105   55.9257    2.7444   56.0463    2.9598   56.0429    2.9640
  1.570   56.3100    2.7825   56.2090    2.9512   56.2227    2.9483   56.2884    2.7806   56.4102    2.9984   56.4068    3.0027
  1.580   56.6776    2.8193   56.5754    2.9898   56.5892    2.9869   56.6560    2.8174   56.7790    3.0379   56.7756    3.0421
  1.590   57.0503    2.8568   56.9467    3.0292   56.9607    3.0263   57.0287    2.8551   57.1529    3.0781   57.1495    3.0823
  1.600   57.4281    2.8951   57.3232    3.0694   57.3373    3.0665   57.4065    2.8935   57.5320    3.1192   57.5286    3.1234
  1.610   57.8111    2.9341   57.7049    3.1104   57.7191    3.1075   57.7895    2.9327   57.9163    3.1611   57.9129    3.1652
  1.620   58.1995    2.9740   58.0919    3.1523   58.1062    3.1493   58.1779    2.9727   58.3060    3.2038   58.3026    3.2080
  1.630   58.5933    3.0147   58.4844    3.1950   58.4988    3.1920   58.5718    3.0136   58.7013    3.2475   58.6978    3.2517
  1.640   58.9928    3.0563   58.8824    3.2386   58.8969    3.2357   58.9713    3.0554   59.1021    3.2921   59.0987    3.2962
  1.650   59.3979    3.0988   59.2861    3.2832   59.3007    3.2802   59.3764    3.0980   59.5086    3.3376   59.5052    3.3418
  1.660   59.8089    3.1422   59.6956    3.3286   59.7104    3.3257   59.7875    3.1415   59.9210    3.3841   59.9176    3.3883
  1.670   60.2258    3.1865   60.1110    3.3751   60.1259    3.3722   60.2044    3.1860   60.3394    3.4316   60.3360    3.4357
  1.680   60.6488    3.2318   60.5325    3.4226   60.5475    3.4196   60.6275    3.2315   60.7639    3.4802   60.7605    3.4843
  1.690   61.0781    3.2780   60.9602    3.4711   60.9753    3.4681   61.0568    3.2780   61.1947    3.5297   61.1913    3.5338
  1.700   61.5137    3.3253   61.3942    3.5206   61.4094    3.5177   61.4925    3.3254   61.6319    3.5804   61.6285    3.5845
  1.710   61.9558    3.3737   61.8347    3.5713   61.8500    3.5684   61.9347    3.3740   62.0756    3.6322   62.0722    3.6363
  1.720   62.4046    3.4231   62.2818    3.6231   62.2973    3.6201   62.3836    3.4236   62.5260    3.6852   62.5226    3.6893
  1.730   62.8602    3.4737   62.7357    3.6760   62.7513    3.6731   62.8392    3.4744   62.9832    3.7394   62.9799    3.7434
  1.740   63.3227    3.5254   63.1965    3.7302   63.2122    3.7272   63.3019    3.5264   63.4475    3.7948   63.4441    3.7988
  1.750   63.7924    3.5783   63.6644    3.7856   63.6803    3.7826   63.7717    3.5795   63.9189    3.8515   63.9156    3.8554
  1.760   64.2694    3.6324   64.1395    3.8422   64.1556    3.8393   64.2488    3.6338   64.3976    3.9094   64.3943    3.9134
  1.770   64.7539    3.6877   64.6221    3.9002   64.6383    3.8973   64.7334    3.6895   64.8839    3.9688   64.8806    3.9727
  1.780   65.2460    3.7444   65.1123    3.9595   65.1286    3.9566   65.2256    3.7464   65.3778    4.0295   65.3746    4.0334
  1.790   65.7459    3.8025   65.6103    4.0202   65.6268    4.0173   65.7257    3.8048   65.8796    4.0916   65.8764    4.0955
  1.800   66.2539    3.8619   66.1163    4.0824   66.1329    4.0795   66.2338    3.8645   66.3895    4.1553   66.3863    4.1591
  1.810   66.7701    3.9227   66.6304    4.1460   66.6472    4.1431   66.7502    3.9256   66.9077    4.2205   66.9045    4.2243
  1.820   67.2947    3.9851   67.1530    4.2112   67.1698    4.2083   67.2750    3.9883   67.4343    4.2872   67.4311    4.2910
  1.830   67.8279    4.0489   67.6841    4.2780   67.7011    4.2751   67.8084    4.0525   67.9696    4.3556   67.9664    4.3594
  1.840   68.3700    4.1144   68.2240    4.3464   68.2412    4.3435   68.3507    4.1183   68.5138    4.4257   68.5107    4.4294
  1.850   68.9212    4.1814   68.7729    4.4165   68.7902    4.4137   68.9021    4.1857   69.0671    4.4975   69.0640    4.5012
  1.860   69.4817    4.2502   69.3311    4.4884   69.3486    4.4855   69.4628    4.2548   69.6298    4.5711   69.6267    4.5748
  1.870   70.0517    4.3207   69.8987    4.5620   69.9164    4.5592   70.0331    4.3257   70.2021    4.6466   70.1990    4.6502
  1.880   70.6316    4.3931   70.4762    4.6376   70.4940    4.6348   70.6132    4.3985   70.7842    4.7240   70.7812    4.7276
  1.890   71.2214    4.4672   71.0635    4.7151   71.0816    4.7123   71.2033    4.4731   71.3764    4.8035   71.3734    4.8070
  1.900   71.8216    4.5434   71.6612    4.7946   71.6794    4.7918   71.8038    4.5497   71.9790    4.8850   71.9761    4.8885
  1.910   72.4324    4.6215   72.2694    4.8761   72.2877    4.8734   72.4149    4.6283   72.5923    4.9686   72.5894    4.9720
  1.920   73.0541    4.7017   72.8884    4.9599   72.9069    4.9571   73.0369    4.7090   73.2164    5.0544   73.2136    5.0578
  1.930   73.6869    4.7841   73.5185    5.0458   73.5372    5.0431   73.6700    4.7918   73.8519    5.1426   73.8490    5.1459
  1.940   74.3313    4.8687   74.1600    5.1341   74.1788    5.1314   74.3147    4.8769   74.4988    5.2331   74.4961    5.2364
  1.950   74.9874    4.9556   74.8132    5.2247   74.8323    5.2221   74.9712    4.9644   75.1577    5.3261   75.1549    5.3294
  1.960   75.6556    5.0449   75.4785    5.3179   75.4977    5.3153   75.6399    5.0543   75.8287    5.4217   75.8260    5.4249
  1.970   76.3363    5.1367   76.1561    5.4136   76.1756    5.4110   76.3210    5.1467   76.5122    5.5199   76.5096    5.5230
  1.980   77.0299    5.2311   76.8465    5.5120   76.8662    5.5094   77.0150    5.2417   77.2087    5.6209   77.2061    5.6239
  1.990   77.7366    5.3282   77.5500    5.6132   77.5699    5.6106   77.7222    5.3394   77.9184    5.7247   77.9159    5.7277
  2.000   78.4569    5.4280   78.2670    5.7172   78.2871    5.7147   78.4430    5.4399   78.6418    5.8315   78.6394    5.8344
  2.010   79.1912    5.5308   78.9979    5.8243   79.0182    5.8218   79.1778    5.5434   79.3792    5.9415   79.3769    5.9443
  2.020   79.9399    5.6366   79.7431    5.9344   79.7636    5.9320   79.9271    5.6498   80.1312    6.0546   80.1289    6.0573
  2.030   80.7034    5.7455   80.5030    6.0478   80.5237    6.0454   80.6912    5.7595   80.8980    6.1710   80.8957    6.1737
  2.040   81.4822    5.8576   81.2780    6.1646   81.2989    6.1622   81.4705    5.8725   81.6801    6.2910   81.6780    6.2936
  2.050   82.2767    5.9731   82.0687    6.2848   82.0898    6.2825   82.2657    5.9888   82.4781    6.4145   82.4761    6.4170
  2.060   83.0874    6.0922   82.8755    6.4087   82.8968    6.4064   83.0771    6.1088   83.2924    6.5418   83.2904    6.5442
  2.070   83.9148    6.2149   83.6988    6.5364   83.7204    6.5342   83.9052    6.2324   84.1235    6.6731   84.1217    6.6754
  2.080   84.7595    6.3415   84.5393    6.6681   84.5612    6.6659   84.7507    6.3599   84.9720    6.8084   84.9702    6.8106
  2.090   85.6220    6.4721   85.3975    6.8039   85.4196    6.8017   85.6139    6.4915   85.8384    6.9480   85.8367    6.9501
  2.100   86.5028    6.6068   86.2739    6.9439   86.2962    6.9418   86.4956    6.6273   86.7232    7.0920   86.7216    7.0940
  2.110   87.4027    6.7459   87.1691    7.0885   87.1917    7.0864   87.3963    6.7674   87.6271    7.2407   87.6257    7.2425
  2.120   88.3221    6.8895   88.0838    7.2377   88.1066    7.2357   88.3166    6.9122   88.5508    7.3942   88.5494    7.3959
  2.130   89.2617    7.0378   89.0185    7.3918   89.0416    7.3899   89.2573    7.0617   89.4947    7.5527   89.4936    7.5543
  2.140   90.2223    7.1911   89.9740    7.5510   89.9974    7.5492   90.2188    7.2163   90.4598    7.7166   90.4587    7.7180
  2.150   91.2045    7.3496   90.9510    7.7155   90.9747    7.7138   91.2021    7.3760   91.4466    7.8859   91.4457    7.8872
  2.160   92.2090    7.5134   91.9502    7.8857   91.9741    7.8840   92.2078    7.5413   92.4559    8.0611   92.4551    8.0622
  2.170   93.2367    7.6830   92.9723    8.0616   92.9965    8.0600   93.2367    7.7123   93.4885    8.2422   93.4879    8.2432
  2.180   94.2884    7.8584   94.0182    8.2437   94.0427    8.2421   94.2897    7.8893   94.5452    8.4297   94.5447    8.4306
  2.190   95.3649    8.0401   95.0887    8.4321   95.1136    8.4307   95.3675    8.0726   95.6268    8.6239   95.6266    8.6245
  2.200   96.4671    8.2283   96.1847    8.6273   96.2099    8.6259   96.4711    8.2624   96.7344    8.8249   96.7343    8.8254
  2.210   97.5960    8.4233   97.3072    8.8295   97.3326    8.8282   97.6014    8.4592   97.8687    9.0333   97.8688    9.0336
  2.220   98.7525    8.6255   98.4570    9.0390   98.4828    9.0379   98.7594    8.6633   99.0308    9.2493   99.0312    9.2494
  2.230   99.9376    8.8352   99.6352    9.2563   99.6614    9.2553   99.9462    8.8750  100.2218    9.4734  100.2224    9.4733
  2.240  101.1525    9.0529  100.8430    9.4818  100.8694    9.4808  101.1628    9.0947  101.4427    9.7058  101.4435    9.7055
  2.250  102.3982    9.2788  102.0813    9.7158  102.1081    9.7150  102.4104    9.3228  102.6947    9.9472  102.6957    9.9467
  2.260  103.6761    9.5135  103.3514    9.9588  103.3786    9.9581  103.6901    9.5598  103.9789   10.1979  103.9803   10.1971
  2.270  104.9872    9.7574  104.6546   10.2112  104.6821   10.2106  105.0033    9.8061  105.2967   10.4584  105.2983   10.4574
  2.280  106.3331   10.0110  105.9921   10.4736  106.0200   10.4732  106.3512   10.0622  106.6494   10.7293  106.6513   10.7280
  2.290  107.7150   10.2749  107.3653   10.7465  107.3936   10.7463  107.7354   10.3288  108.0384   11.0111  108.0405   11.0095
  2.300  109.1344   10.5495  108.7757   11.0305  108.8044   11.0304  109.1571   10.6062  109.4651   11.3044  109.4676   11.3025
  2.310  110.5929   10.8356  110.2248   11.3262  110.2539   11.3263  110.6181   10.8953  110.9311   11.6098  110.9340   11.6077
  2.320  112.0921   11.1336  111.7142   11.6343  111.7438   11.6345  112.1200   11.1965  112.4381   11.9282  112.4414   11.9257
  2.330  113.6338   11.4445  113.2457   11.9554  113.2757   11.9558  113.6644   11.5107  113.9879   12.2601  113.9915   12.2573
  2.340  115.2197   11.7688  114.8210   12.2903  114.8514   12.2909  115.2533   11.8386  115.5822   12.6063  115.5862   12.6032
  2.350  116.8519   12.1073  116.4421   12.6399  116.4729   12.6407  116.8886   12.1809  117.2230   12.9679  117.2275   12.9644
  2.360  118.5324   12.4611  118.1109   13.0049  118.1423   13.0060  118.5723   12.5386  118.9124   13.3455  118.9174   13.3416
  2.370  120.2633   12.8308  119.8297   13.3864  119.8615   13.3877  120.3066   12.9126  120.6525   13.7403  120.6580   13.7360
  2.380  122.0469   13.2176  121.6006   13.7854  121.6329   13.7869  122.0939   13.3039  122.4458   14.1533  122.4518   14.1486
  2.390  123.8858   13.6226  123.4261   14.2029  123.4590   14.2047  123.9366   13.7136  124.2946   14.5857  124.3011   14.5805
  2.400  125.7825   14.0468  125.3089   14.6402  125.3422   14.6422  125.8374   14.1429  126.2015   15.0386  126.2087   15.0330
  2.410  127.7397   14.4916  127.2514   15.0984  127.2854   15.1008  127.7989   14.5931  128.1694   15.5134  128.1772   15.5073
  2.420  129.7604   14.9583  129.2568   15.5791  129.2913   15.5817  129.8242   15.0655  130.2011   16.0116  130.2096   16.0050
  2.430  131.8477   15.4484  131.3280   16.0836  131.3631   16.0866  131.9164   15.5616  132.2999   16.5348  132.3091   16.5276
  2.440  134.0051   15.9634  133.4684   16.6137  133.5041   16.6170  134.0788   16.0832  134.4691   17.0846  134.4791   17.0769
  2.450  136.2359   16.5051  135.6814   17.1710  135.7178   17.1747  136.3151   16.6319  136.7123   17.6629  136.7231   17.6546
  2.460  138.5442   17.0755  137.9708   17.7575  138.0078   17.7616  138.6291   17.2097  139.0333   18.2718  139.0450   18.2628
  2.470  140.9338   17.6765  140.3406   18.3753  140.3783   18.3799  141.0249   17.8187  141.4361   18.9134  141.4489   18.9037
  2.480  143.4092   18.3105  142.7951   19.0268  142.8335   19.0317  143.5068   18.4613  143.9253   19.5901  143.9390   19.5798
  2.490  145.9751   18.9799  145.3389   19.7142  145.3780   19.7197  146.0795   19.1398  146.5054   20.3047  146.5203   20.2936
  2.500  148.6364   19.6874  147.9768   20.4406  148.0167   20.4466  148.7482   19.8571  149.1815   21.0599  149.1975   21.0480
  2.510  151.3986   20.4359  150.7142   21.2087  150.7548   21.2153  151.5181   20.6162  151.9590   21.8590  151.9763   21.8463
  2.520  154.2674   21.2288  153.5568   22.0220  153.5982   22.0291  154.3952   21.4204  154.8437   22.7054  154.8624   22.6918
  2.530  157.2490   22.0696  156.5106   22.8840  156.5528   22.8918  157.3857   22.2735  157.8418   23.6029  157.8620   23.5884
  2.540  160.3503   22.9623  159.5822   23.7988  159.6254   23.8073  160.4963   23.1794  160.9602   24.5559  160.9820   24.5404
  2.550  163.5784   23.9112  162.7788   24.7708  162.8228   24.7800  163.7344   24.1426  164.2059   25.5689  164.2295   25.5525
  2.560  166.9411   24.9213  166.1080   25.8049  166.1530   25.8149  167.1078   25.1681  167.5870   26.6473  167.6124   26.6297
  2.570  170.4471   25.9980  169.5780   26.9066  169.6240   26.9174  170.6251   26.2615  171.1118   27.7967  171.1393   27.7779
  2.580  174.1053   27.1471  173.1980   28.0818  173.2450   28.0936  174.2954   27.4288  174.7896   29.0235  174.8193   29.0036
  2.590  177.9259   28.3754  176.9776   29.3373  177.0257   29.3501  178.1289   28.6768  178.6304   30.3349  178.6625   30.3137
  2.600  181.9196   29.6905  180.9274   30.6807  180.9766   30.6946  182.1364   30.0134  182.6449   31.7390  182.6796   31.7164
  2.610  186.0982   31.1006  185.0588   32.1204  185.1092   32.1355  186.3298   31.4469  186.8449   33.2446  186.8825   33.2206
  2.620  190.4747   32.6152  189.3845   33.6659  189.4362   33.6822  190.7220   32.9871  191.2432   34.8618  191.2839   34.8363
  2.630  195.0629   34.2448  193.9181   35.3278  193.9710   35.3454  195.3271   34.6448  195.8538   36.6020  195.8979   36.5748
  2.640  199.8783   36.0016  198.6745   37.1181  198.7287   37.1372  200.1605   36.4323  200.6919   38.4779  200.7398   38.4491
  2.650  204.9376   37.8990  203.6699   39.0504  203.7256   39.0712  205.2391   38.3635  205.7742   40.5042  205.8263   40.4736
  2.660  210.2592   39.9525  208.9224   41.1403  208.9795   41.1629  210.5813   40.4542  211.1190   42.6972  211.1756   42.6648
  2.670  215.8633   42.1796  214.4513   43.4054  214.5099   43.4299  216.2074   42.7225  216.7462   45.0758  216.8077   45.0414
  2.680  221.7721   44.6005  220.2783   45.8656  220.3386   45.8923  222.1398   45.1890  222.6777   47.6615  222.7448   47.6251
  2.690  228.0101   47.2384  226.4270   48.5443  226.4889   48.5733  228.4028   47.8774  228.9376   50.4791  229.0109   50.4405
  2.700  234.6041   50.1197  232.9234   51.4679  232.9871   51.4995  235.0237   50.8150  235.5524   53.5569  235.6326   53.5161
  2.710  241.5840   53.2754  239.7962   54.6671  239.8617   54.7016  242.0321   54.0335  242.5513   56.9279  242.6391   56.8848
  2.720  248.9824   56.7412  247.0770   58.1775  247.1443   58.2152  249.4610   57.5696  249.9663   60.6302  250.0626   60.5848
  2.730  256.8358   60.5588  254.8006   62.0407  254.8699   62.0819  257.3466   61.4662  257.8326   64.7085  257.9385   64.6607
  2.740  265.1842   64.7771  263.0055   66.3051  263.0769   66.3502  265.7290   65.7734  266.1892   69.2150  266.3059   69.1647
  2.750  274.0720   69.4536  271.7342   71.0278  271.8077   71.0774  274.6526   70.5505  275.0786   74.2109  275.2074   74.1583
  2.760  283.5481   74.6563  281.0334   76.2762  281.1090   76.3306  284.1660   75.8674  284.5477   79.7688  284.6902   79.7140
  2.770  293.6665   80.4661  290.9543   82.1302  291.0322   82.1901  294.3229   81.8072  294.6474   85.9750  294.8056   85.9182
  2.780  304.4865   86.9797  301.5532   88.6851  301.6333   88.7513  305.1820   88.4694  305.4334   92.9323  305.6093   92.8738
  2.790  316.0728   94.3132  312.8913   96.0553  312.9736   96.1285  316.8074   95.9735  316.9653  100.7642  317.1617  100.7045
  2.800  328.4959  102.6068  325.0345  104.3787  325.1190  104.4599  329.2679  104.4639  329.3070  109.6197  329.5266  109.5596
  2.810  341.8308  112.0313  338.0531  113.8227  338.1396  113.9129  342.6371  114.1161  342.5247  119.6796  342.7712  119.6202
  2.820  356.1567  122.7952  352.0202  124.5912  352.1084  124.6917  356.9910  125.1449  356.6855  131.1645  356.9632  131.1075
  2.830  371.5540  135.1551  367.0092  136.9347  367.0988  137.0471  372.4059  137.8141  371.8538  144.3449  372.1676  144.2925
  2.840  388.0999  149.4287  383.0896  151.1622  383.1801  151.2882  388.9533  152.4503  388.0852  159.5546  388.4408  159.5101
  2.850  405.8617  166.0112  400.3194  167.6572  400.4099  167.7988  406.6914  169.4594  405.4165  177.2067  405.8211  177.1747
  2.860  424.8831  185.3967  418.7326  186.8974  418.8218  187.0570  425.6510  189.3483  423.8506  197.8149  424.3121  197.8018
  2.870  445.1644  208.2057  438.3190  209.4809  438.4051  209.6612  445.8135  212.7524  443.3303  222.0191  443.8583  222.0341
  2.880  466.6279  235.2186  458.9914  236.1567  459.0719  236.3609  467.0733  240.4684  463.6991  250.6155  464.3041  250.6717
  2.890  489.0632  267.4163  480.5328  267.8626  480.6043  268.0941  489.1796  273.4935  484.6369  284.5910  485.3305  284.7067
  2.900  512.0389  306.0230  502.5129  305.7641  502.5704  306.0266  511.6418  313.0649  505.5618  325.1532  506.3555  325.3545
  2.910  534.7627  352.5449  524.1557  351.2885  524.1925  351.5856  533.5829  360.6907  525.4784  373.7455  526.3816  374.0690
  2.920  555.8636  408.7781  544.1358  406.1297  544.1429  406.4647  553.5143  418.1431  542.7532  432.0143  543.7689  432.5104
  2.930  573.0684  476.7371  560.2771  472.1788  560.2425  472.5535  569.0077  487.3601  554.7995  501.6689  555.9170  502.4056
  2.940  582.7528  558.4006  569.1367  551.2841  569.0451  551.6980  576.2560  570.1470  557.6842  584.1266  558.8658  585.1902
  2.950  579.4119  655.0949  565.5157  644.6782  565.3487  645.1266  569.5909  667.5000  545.7559  679.7790  546.9169  681.2676
  2.960  555.2687  766.2619  542.0963  751.8382  541.8320  752.3100  541.2087  778.3227  511.5858  786.7112  512.5710  788.7119
  2.970  500.6032  887.4199  489.7360  868.6048  489.3504  869.0792  481.7138  897.4265  446.8186  898.9093  447.3879  901.4479
  2.980  405.8680 1007.6726  399.3893  984.8731  398.8592  985.3140  382.4644 1013.3107  344.7123 1004.6352  344.5668 1007.5997
  2.990  266.5908 1108.5069  266.5800 1083.4255  265.8938 1083.7748  240.4386 1107.5185  204.5582 1086.7001  203.4425 1089.7786
  3.000   90.0042 1167.1908   97.5093 1142.8939   96.6902 1143.0755   64.2035 1158.5235   36.1497 1126.7410   34.0124 1129.4585
  3.010 -101.9387 1166.5485  -87.9270 1146.5386  -88.8028 1146.4908 -124.1134 1151.1735 -139.8928 1113.2823 -142.7985 1115.1834
  3.020 -279.4094 1105.6888 -261.8985 1092.2219 -262.7239 1091.9429 -296.0064 1086.1590 -298.9162 1048.5914 -302.1204 1049.4575
  3.030 -418.6730 1001.3024 -401.2023  994.3237 -401.8972  993.8779 -429.6176  980.3269 -422.6144  947.9796 -425.6552  947.8941
  3.040 -511.2779  877.7200 -496.2677  875.3195 -496.8167  874.7932 -517.7018  856.9872 -504.9742  831.7893 -507.5672  831.0209
  3.050 -562.5096  755.5818 -550.6034  755.2777 -551.0452  754.7268 -565.6445  735.4983 -550.5966  717.0787 -552.6559  715.9202
  3.060 -584.5845  646.6844 -574.8713  646.5520 -575.2589  645.9735 -584.8627  626.8581 -569.4379  613.9370 -571.0087  612.6079
  3.070 -590.6080  553.4304 -581.3099  552.9986 -581.6519  552.3317 -587.2621  533.7910 -572.2908  525.2901 -573.4623  523.9064
  3.080 -588.2916  470.5337 -578.3893  471.1518 -578.5881  470.3568 -580.4359  452.7143 -566.5755  448.0915 -567.3981  446.7025
  3.090 -576.1290  394.1334 -566.7444  397.0283 -566.6990  396.2167 -565.0543  380.4691 -553.2310  378.9231 -553.7289  377.6062
  3.100 -553.4503  328.0871 -545.9619  332.6168 -545.7297  331.9276 -541.7330  318.9089 -532.2942  319.1465 -532.5490  317.9764
  3.110 -525.3497  274.8210 -519.9353  279.8355 -519.6240  279.2951 -514.5197  268.9679 -507.1358  270.0133 -507.2393  269.0002
  3.120 -496.2838  232.5743 -492.5324  237.3934 -492.2047  236.9712 -486.7691  228.8784 -480.9797  230.2330 -480.9899  229.3567
  3.130 -468.2759  198.7252 -465.7335  203.0744 -465.4144  202.7361 -460.0412  196.4007 -455.4729  197.8313 -455.4226  197.0693
  3.140 -442.0173  171.1821 -440.3299  174.9902 -440.0270  174.7102 -434.9018  169.7448 -431.2796  171.1393 -431.1886  170.4734
  3.150 -417.6622  148.4471 -416.5767  151.7290 -416.2908  151.4898 -411.4957  147.5977 -408.6170  148.9012 -408.4981  148.3169
  3.160 -395.1608  129.4471 -394.5002  132.2502 -394.2294  132.0398 -389.7945  128.9957 -387.5075  130.1820 -387.3696  129.6679
  3.170 -374.3877  113.3961 -374.0281  115.7768 -373.7697  115.5867 -369.6988  113.2181 -367.8874  114.2766 -367.7368  113.8233
  3.180 -355.1925   99.7046 -355.0467  101.7181 -354.7978  101.5423 -351.0812   99.7156 -349.6554  100.6444 -349.4967  100.2444
  3.190 -337.4214   87.9210 -337.4276   89.6181 -337.1851   89.4521 -333.8069   88.0625 -332.6955   88.8645 -332.5321   88.5115
  3.200 -320.9256   77.6941 -321.0396   79.1196 -320.8006   78.9599 -317.7424   77.9244 -316.8885   78.6049 -316.7233   78.2940
  3.210 -305.5652   68.7460 -305.7556   69.9391 -305.5172   69.7830 -302.7601   69.0351 -302.1174   69.6009 -301.9524   69.3278
  3.220 -291.2095   60.8545 -291.4539   61.8495 -291.2130   61.6947 -288.7387   61.1804 -288.2693   61.6388 -288.1066   61.4000
  3.230 -277.7362   53.8395 -278.0188   54.6662 -277.7722   54.5108 -275.5639   54.1858 -275.2356   54.5443 -275.0771   54.3369
  3.240 -265.0290   47.5531 -265.3393   48.2378 -265.0832   48.0801 -263.1260   47.9078 -262.9112   48.1743 -262.7589   47.9956
  3.250 -252.9748   41.8725 -253.3064   42.4391 -253.0366   42.2773 -251.3176   42.2271 -251.1918   42.4098 -251.0482   42.2573
  3.260 -241.4585   36.6954 -241.8093   37.1658 -241.5204   36.9981 -240.0294   37.0442 -239.9703   37.1524 -239.8380   37.0231
  3.270 -230.3568   31.9379 -230.7291   32.3328 -230.4135   32.1576 -229.1444   32.2774 -229.1308   32.3226 -229.0130   32.2122
  3.280 -219.5285   27.5386 -219.9310   27.8773 -219.5777   27.6935 -218.5296   27.8656 -218.5418   27.8628 -218.4406   27.7656
  3.290 -208.8076   23.4721 -209.2569   23.7704 -208.8494   23.5803 -208.0285   23.7795 -208.0488   23.7492 -207.9645   23.6575
  3.300 -198.0061   19.7708 -198.5273   20.0371 -198.0440   19.8508 -197.4607   20.0402 -197.4764   20.0107 -197.4047   19.9166
  3.310 -186.9332   16.5410 -187.5567   16.7729 -186.9748   16.6140 -186.6338   16.7370 -186.6412   16.7441 -186.5737   16.6435
  3.320 -175.4048   13.9627 -176.1653   14.1489 -175.4684   14.0546 -175.3502   14.0372 -175.3577   14.1228 -175.2860   14.0185
  3.330 -163.2236   12.3173 -164.1684   12.4355 -163.3489   12.4552 -163.3952   12.2212 -163.4252   12.4348 -163.3475   12.3341
  3.340 -150.1890   12.1005 -151.3885   12.0961 -150.4504   12.2968 -150.5560   11.7913 -150.6571   12.1981 -150.5807   12.1052
  3.350 -136.2573   14.1969 -137.7930   13.9370 -136.7705   14.4143 -136.7857   13.6413 -137.0684   14.3199 -137.0046   14.2261
  3.360 -121.9956   19.9769 -123.8868   19.1941 -122.8904   20.0635 -122.6597   19.1411 -123.3540   20.1338 -123.3033   20.0112
  3.370 -109.3945   30.8661 -111.4148   29.1765 -110.6858   30.4975 -110.1690   29.6772 -111.6458   30.8356 -111.5696   30.6505
  3.380 -102.2804   46.5955 -103.7749   43.8041 -103.6320   45.4122 -103.0391   44.9316 -105.6030   45.6851 -105.4175   45.4539
  3.390 -104.0072   62.9723 -104.2226   59.5821 -104.7752   61.0410 -104.4651   60.8678 -107.7998   60.3390 -107.4593   60.1742
  3.400 -113.0268   73.8693 -111.9341   70.8596 -112.8919   71.8095 -113.0631   71.6337 -116.0991   69.4928 -115.6858   69.5080
  3.410 -123.7112   77.0673 -121.9820   74.9571 -122.9657   75.4072 -123.5277   74.9018 -125.3863   71.7881 -125.0303   71.9819
  3.420 -131.9244   74.9244 -130.1539   73.5954 -130.9980   73.7366 -131.7140   72.7466 -132.3077   69.5385 -132.0777   69.8354
  3.430 -136.7978   70.5662 -135.2150   69.7164 -135.9187   69.6870 -136.5623   68.2072 -136.2653   65.4348 -136.1683   65.7630
  3.440 -139.0971   65.9001 -137.7140   65.3157 -138.3047   65.1617 -138.6978   63.2706 -137.9520   61.0929 -137.9708   61.4051
  3.450 -139.8602   61.6975 -138.6400   61.2784 -139.1029   61.0080 -139.1363   58.8463 -138.2747   57.1776 -138.3873   57.4422
  3.460 -139.9304   58.0681 -138.8605   57.7572 -139.1422   57.4187 -138.8139   55.1243 -137.9792   53.7729 -138.1583   53.9651
  3.470 -139.8590   54.7471 -138.9148   54.4678 -139.0137   54.1811 -138.3549   51.7901 -137.5176   50.6227 -137.7264   50.7279
  3.480 -139.7989   51.2576 -138.8841   50.9745 -138.9205   50.8162 -137.8529   48.3434 -136.9562   47.3649 -137.1535   47.3898
  3.490 -139.4047   47.2655 -138.4559   47.0627 -138.5361   46.9614 -136.9688   44.5704 -136.0480   43.8366 -136.2066   43.8089
  3.500 -138.2105   42.9719 -137.2941   42.9264 -137.3938   42.7951 -135.4034   40.6966 -134.5475   40.2016 -134.6642   40.1521
  3.510 -136.1502   38.8624 -135.3538   38.9466 -135.4168   38.7846 -133.1786   37.0716 -132.4460   36.7522 -132.5311   36.6995
  3.520 -133.4853   35.2465 -132.8347   35.3917 -132.8477   35.2324 -130.5123   33.8907 -129.9131   33.6795 -129.9779   33.6303
  3.530 -130.5080   32.1881 -129.9865   32.3437 -129.9631   32.2075 -127.6245   31.1815 -127.1437   31.0311 -127.1958   30.9865
  3.540 -127.4191   29.6281 -126.9995   29.7688 -126.9565   29.6600 -124.6650   28.8896 -124.2817   28.7725 -124.3251   28.7318
  3.550 -124.3317   27.4766 -123.9905   27.5931 -123.9391   27.5081 -121.7191   26.9415 -121.4140   26.8429 -121.4510   26.8057
  3.560 -121.3026   25.6507 -121.0226   25.7411 -120.9688   25.6745 -118.8300   25.2703 -118.5876   25.1827 -118.6197   25.1486
  3.570 -118.3577   24.0840 -118.1264   24.1494 -118.0729   24.0964 -116.0173   23.8221 -115.8258   23.7418 -115.8540   23.7107
  3.580 -115.5060   22.7258 -115.3148   22.7682 -115.2627   22.7251 -113.2881   22.5557 -113.1385   22.4809 -113.1638   22.4528
  3.590 -112.7489   21.5377 -112.5913   21.5595 -112.5407   21.5236 -110.6434   21.4396 -110.5284   21.3697 -110.5518   21.3445
  3.600 -110.0834   20.4909 -109.9547   20.4942 -109.9055   20.4637 -108.0808   20.4498 -107.9949   20.3848 -108.0169   20.3622
  3.610 -107.5050   19.5634 -107.4016   19.5504 -107.3536   19.5240 -105.5966   19.5678 -105.5353   19.5083 -105.5565   19.4878
  3.620 -105.0086   18.7384 -104.9277   18.7110 -104.8806   18.6876 -103.1866   18.7793 -103.1463   18.7259 -103.1671   18.7074
  3.630 -102.5888   18.0026 -102.5284   17.9626 -102.4820   17.9416 -100.8464   18.0732 -100.8243   18.0267 -100.8448   18.0097
  3.640 -100.2408   17.3457 -100.1993   17.2948 -100.1533   17.2755  -98.5720   17.4405  -98.5656   17.4017  -98.5860   17.3861
  3.650  -97.9599   16.7596  -97.9362   16.6992  -97.8904   16.6813  -96.3595   16.8740  -96.3667   16.8439  -96.3871   16.8295
  3.660  -95.7419   16.2376  -95.7350   16.1693  -95.6893   16.1523  -94.2052   16.3681  -94.2245   16.3476  -94.2449   16.3343
  3.670  -93.5828   15.7746  -93.5924   15.6996  -93.5466   15.6832  -92.1061   15.9180  -92.1359   15.9083  -92.1563   15.8960
  3.680  -91.4794   15.3663  -91.5052   15.2857  -91.4592   15.2697  -90.0591   15.5201  -90.0983   15.5222  -90.1189   15.5108
  3.690  -89.4287   15.0092  -89.4707   14.9242  -89.4242   14.9083  -88.0620   15.1711  -88.1094   15.1863  -88.1301   15.1757
  3.700  -87.4280   14.7006  -87.4863   14.6122  -87.4393   14.5962  -86.1124   14.8686  -86.1672   14.8982  -86.1881   14.8883
  3.710  -85.4753   14.4383  -85.5503   14.3472  -85.5025   14.3311  -84.2085   14.6105  -84.2701   14.6558  -84.2912   14.6466
  3.720  -83.5685   14.2202  -83.6608   14.1275  -83.6121   14.1110  -82.3489   14.3951  -82.4167   14.4574  -82.4381   14.4488
  3.730  -81.7065   14.0450  -81.8167   13.9512  -81.7670   13.9342  -80.5324   14.2207  -80.6060   14.3016  -80.6277   14.2936
  3.740  -79.8879   13.9111  -80.0170   13.8170  -79.9660   13.7993  -78.7583   14.0861  -78.8374   14.1872  -78.8593   14.1797
  3.750  -78.1122   13.8174  -78.2611   13.7234  -78.2088   13.7049  -77.0258   13.9900  -77.1104   14.1128  -77.1326   14.1059
  3.760  -76.3788   13.7626  -76.5488   13.6691  -76.4949   13.6499  -75.3350   13.9311  -75.4249   14.0774  -75.4474   14.0709
  3.770  -74.6876   13.7454  -74.8800   13.6528  -74.8243   13.6326  -73.6856   13.9080  -73.7812   14.0797  -73.8040   14.0735
  3.780  -73.0387   13.7644  -73.2550   13.6730  -73.1974   13.6518  -72.0781   13.9192  -72.1795   14.1182  -72.2027   14.1123
  3.790  -71.4325   13.8181  -71.6743   13.7279  -71.6145   13.7056  -70.5127   13.9630  -70.6205   14.1912  -70.6440   14.1856
  3.800  -69.8692   13.9046  -70.1384   13.8156  -70.0761   13.7922  -68.9899   14.0375  -69.1048   14.2969  -69.1285   14.2915
  3.810  -68.3493   14.0218  -68.6478   13.9337  -68.5828   13.9091  -67.5102   14.1402  -67.6328   14.4330  -67.6569   14.4277
  3.820  -66.8732   14.1673  -67.2031   14.0796  -67.1351   14.0539  -66.0739   14.2685  -66.2052   14.5969  -66.2295   14.5918
  3.830  -65.4408   14.3381  -65.8044   14.2504  -65.7332   14.2235  -64.6811   14.4194  -64.8222   14.7857  -64.8467   14.7806
  3.840  -64.0521   14.5311  -64.4519   14.4426  -64.3770   14.4146  -63.3315   14.5897  -63.4837   14.9961  -63.5083   14.9911
  3.850  -62.7065   14.7432  -63.1449   14.6527  -63.0661   14.6237  -62.0245   14.7756  -62.1891   15.2248  -62.2138   15.2198
  3.860  -61.4027   14.9706  -61.8825   14.8770  -61.7994   14.8470  -60.7588   14.9736  -60.9373   15.4679  -60.9621   15.4629
  3.870  -60.1390   15.2099  -60.6631   15.1116  -60.5753   15.0807  -59.5324   15.1799  -59.7266   15.7220  -59.7515   15.7170
  3.880  -58.9130   15.4576  -59.4843   15.3527  -59.3914   15.3213  -58.3428   15.3907  -58.5545   15.9835  -58.5794   15.9785
  3.890  -57.7216   15.7106  -58.3431   15.5969  -58.2449   15.5651  -57.1868   15.6028  -57.4180   16.2492  -57.4428   16.2442
  3.900  -56.5609   15.9661  -57.2360   15.8410  -57.1320   15.8091  -56.0604   15.8132  -56.3134   16.5163  -56.3381   16.5113
  3.910  -55.4266   16.2220  -56.1587   16.0826  -56.0486   16.0508  -54.9592   16.0194  -55.2362   16.7827  -55.2608   16.7777
  3.920  -54.3141   16.4768  -55.1066   16.3197  -54.9900   16.2884  -53.8781   16.2197  -54.1819   17.0469  -54.2063   17.0419
  3.930  -53.2180   16.7299  -54.0747   16.5510  -53.9512   16.5207  -52.8118   16.4132  -53.1453   17.3083  -53.1696   17.3033
  3.940  -52.1332   16.9815  -53.0576   16.7763  -52.9270   16.7473  -51.7549   16.5996  -52.1214   17.5670  -52.1455   17.5621
  3.950  -51.0543   17.2328  -52.0503   16.9959  -51.9122   16.9687  -50.7016   16.7795  -51.1049   17.8243  -51.1288   17.8193
  3.960  -49.9760   17.4857  -51.0473   17.2110  -50.9015   17.1860  -49.6465   16.9544  -50.0907   18.0818  -50.1145   18.0769
  3.970  -48.8935   17.7430  -50.0437   17.4234  -49.8900   17.4012  -48.5841   17.1264  -49.0742   18.3424  -49.0977   18.3374
  3.980  -47.8020   18.0084  -49.0345   17.6357  -48.8726   17.6168  -47.5092   17.2984  -48.0509   18.6095  -48.0742   18.6043
  3.990  -46.6975   18.2863  -48.0153   17.8510  -47.8449   17.8358  -46.4166   17.4737  -47.0167   18.8870  -47.0398   18.8816
  4.000  -45.5763   18.5815  -46.9815   18.0728  -46.8024   18.0619  -45.3018   17.6563  -45.9682   19.1795  -45.9909   19.1739
  4.010  -44.4354   18.8996  -45.9291   18.3052  -45.7410   18.2991  -44.1602   17.8508  -44.9022   19.4923  -44.9245   19.4862
  4.020  -43.2724   19.2466  -44.8541   18.5527  -44.6566   18.5519  -42.9874   18.0622  -43.8162   19.8306  -43.8380   19.8240
  4.030  -42.0857   19.6289  -43.7525   18.8200  -43.5454   18.8252  -41.7793   18.2958  -42.7082   20.2004  -42.7293   20.1931
  4.040  -40.8744   20.0529  -42.6204   19.1128  -42.4031   19.1245  -40.5317   18.5578  -41.5763   20.6077  -41.5965   20.5996
  4.050  -39.6385   20.5250  -41.4536   19.4369  -41.2257   19.4559  -39.2407   18.8546  -40.4193   21.0587  -40.4383   21.0497
  4.060  -38.3783   21.0514  -40.2477   19.7994  -40.0086   19.8264  -37.9019   19.1936  -39.2361   21.5597  -39.2536   21.5497
  4.070  -37.0948   21.6371  -38.9980   20.2080  -38.7469   20.2439  -36.5111   19.5828  -38.0253   22.1170  -38.0410   22.1061
  4.080  -35.7882   22.2861  -37.6992   20.6725  -37.4353   20.7182  -35.0639   20.0315  -36.7851   22.7370  -36.7987   22.7251
  4.090  -34.4574   23.0010  -36.3459   21.2042  -36.0680   21.2611  -33.5555   20.5501  -35.5122   23.4265  -35.5234   23.4135
  4.100  -33.0973   23.7833  -34.9323   21.8174  -34.6392   21.8872  -31.9808   21.1506  -34.2011   24.1936  -34.2099   24.1791
  4.110  -31.6973   24.6359  -33.4529   22.5299  -33.1430   22.6145  -30.3347   21.8472  -32.8436   25.0494  -32.8495   25.0325
  4.120  -30.2395   25.5665  -31.9033   23.3639  -31.5749   23.4660  -28.6115   22.6567  -31.4286   26.0104  -31.4303   25.9898
  4.130  -28.6996   26.5936  -30.2810   24.3468  -29.9323   24.4699  -26.8058   23.5990  -29.9434   27.1021  -29.9382   27.0763
  4.140  -27.0515   27.7516  -28.5876   25.5122  -28.2167   25.6610  -24.9121   24.6984  -28.3771   28.3614  -28.3604   28.3301
  4.150  -25.2754   29.0937  -26.8309   26.9001  -26.4362   27.0805  -22.9257   25.9843  -26.7258   29.8392  -26.6915   29.8047
  4.160  -23.3656   30.6897  -25.0278   28.5569  -24.6082   28.7766  -20.8432   27.4927  -24.9984   31.5999  -24.9408   31.5682
  4.170  -21.3358   32.6210  -23.2074   30.5341  -22.7632   30.8026  -18.6641   29.2681  -23.2239   33.7190  -23.1398   33.6997
  4.180  -19.2214   34.9760  -21.4151   32.8859  -20.9484   33.2149  -16.3918   31.3651  -21.4568   36.2786  -21.3478   36.2834
  4.190  -17.0810   37.8487  -19.7158   35.6661  -19.2317   36.0692  -14.0374   33.8516  -19.7831   39.3616  -19.6559   39.4014
  4.200  -15.0005   41.3383  -18.1968   38.9219  -17.7046   39.4145  -11.6237   36.8114  -18.3256   43.0435  -18.1918   43.1260
  4.210  -13.1031   45.5482  -16.9697   42.6875  -16.4846   43.2858   -9.1927   40.3477  -17.2498   47.3817  -17.1231   47.5094
  4.220  -11.5647   50.5799  -16.1708   46.9751  -15.7151   47.6944   -6.8163   44.5857  -16.7685   52.3991  -16.6627   52.5694
  4.230  -10.6327   56.5144  -15.9578   51.7645  -15.5623   52.6170   -4.6138   49.6730  -17.1434   58.0606  -17.0698   58.2661
  4.240  -10.6435   63.3772  -16.5030   56.9936  -16.2081   57.9842   -2.7760   55.7742  -18.6773   64.2389  -18.6436   64.4699
  4.250  -12.0252   71.0786  -17.9838   62.5494  -17.8385   63.6706   -1.6000   63.0526  -21.6858   70.6729  -21.6962   70.9192
  4.260  -15.2620   79.3352  -20.5698   68.2627  -20.6285   69.4887   -1.5308   71.6262  -26.4348   76.9279  -26.4915   77.1798
  4.270  -20.7960   87.5968  -24.4130   73.9033  -24.7282   75.1838   -3.1968   81.4795  -33.0346   82.3869  -33.1391   82.6348
  4.280  -28.8609   95.0354  -29.6360   79.1678  -30.2463   80.4252   -7.4030   92.3127  -41.3066   86.3202  -41.4596   86.5516
  4.290  -39.3022  100.6565  -36.3046   83.6543  -37.2181   84.7866  -15.0049  103.3389  -50.6936   88.0642  -50.8910   88.2637
  4.300  -51.4863  103.5275  -44.3533   86.8398  -45.5311   87.7361  -26.5728  113.1301  -60.3167   87.2675  -60.5455   87.4207
  4.310  -64.3610  103.0341  -53.4539   88.1276  -54.8035   88.6960  -41.8578  119.7499  -69.2141   84.0566  -69.4543   84.1568
  4.320  -76.6450   99.0754  -62.9145   87.0398  -64.3036   87.2396  -59.3750  121.3984  -76.6429   78.9872  -76.8745   79.0388
  4.330  -87.1146   92.1538  -71.7758   83.5017  -73.0696   83.3612  -76.6465  117.3627  -82.2530   72.8126  -82.4628   72.8281
  4.340  -94.9414   83.2764  -79.1480   77.9767  -80.2496   77.5793  -91.2141  108.5021  -86.0626   66.2359  -86.2455   66.2295
  4.350  -99.9033   73.6300  -84.5473   71.2839  -85.4160   70.7336 -101.6662   96.7604  -88.3159   59.7722  -88.4732   59.7557
  4.360 -102.3142   64.2108  -87.9697   64.2525  -88.6126   63.6408 -107.8886   84.1764  -89.3397   53.7302  -89.4755   53.7117
  4.370 -102.7612   55.6359  -89.7248   57.4829  -90.1759   56.8743 -110.6105   72.2044  -89.4502   48.2561  -89.5695   48.2399
  4.380 -101.8563   48.1657  -90.2247   51.3024  -90.5259   50.7338 -110.8220   61.5893  -88.9129   43.3898  -89.0202   43.3782
  4.390 -100.1049   41.8229  -89.8497   45.8309  -90.0400   45.3194 -109.4143   52.5538  -87.9339   39.1117  -88.0327   39.1053
  4.400  -97.8739   36.5089  -88.8985   41.0669  -89.0098   40.6170 -107.0570   45.0314  -86.6659   35.3727  -86.7589   35.3715
  4.410  -95.4092   32.0805  -87.5868   36.9512  -87.6432   36.5603 -104.2047   38.8335  -85.2187   32.1129  -85.3078   32.1166
  4.420  -92.8669   28.3914  -86.0629   33.4043  -86.0823   33.0668 -101.1465   33.7428  -83.6698   29.2718  -83.7564   29.2798
  4.430  -90.3417   25.3098  -84.4265   30.3452  -84.4213   30.0545  -98.0570   29.5560  -82.0731   26.7926  -82.1582   26.8043
  4.440  -87.8881   22.7240  -82.7429   27.7003  -82.7218   27.4497  -95.0371   26.0990  -80.4653   24.6245  -80.5496   24.6396
  4.450  -85.5353   20.5424  -81.0544   25.4054  -81.0235   25.1886  -92.1407   23.2287  -78.8712   22.7232  -78.9551   22.7413
  4.460  -83.2966   18.6909  -79.3880   23.4060  -79.3513   23.2178  -89.3936   20.8309  -77.3068   21.0509  -77.3908   21.0716
  4.470  -81.1759   17.1100  -77.7601   21.6567  -77.7204   21.4924  -86.8046   18.8144  -75.7824   19.5750  -75.8667   19.5980
  4.480  -79.1718   15.7520  -76.1806   20.1197  -76.1396   19.9753  -84.3729   17.1075  -74.3040   18.2681  -74.3888   18.2933
  4.490  -77.2793   14.5788  -74.6545   18.7635  -74.6134   18.6357  -82.0921   15.6532  -72.8748   17.1070  -72.9602   17.1341
  4.500  -75.4922   13.5596  -73.1842   17.5619  -73.1436   17.4480  -79.9531   14.4065  -71.4958   16.0718  -71.5821   16.1008
  4.510  -73.8033   12.6695  -71.7699   16.4932  -71.7302   16.3909  -77.9459   13.3313  -70.1671   15.1461  -70.2543   15.1768
  4.520  -72.2055   11.8884  -70.4106   15.5391  -70.3720   15.4466  -76.0600   12.3988  -68.8875   14.3155  -68.9757   14.3480
  4.530  -70.6917   11.1996  -69.1045   14.6845  -69.0671   14.6000  -74.2852   11.5859  -67.6555   13.5682  -67.7448   13.6023
  4.540  -69.2553   10.5898  -67.8495   13.9163  -67.8131   13.8385  -72.6121   10.8736  -66.4690   12.8938  -66.5596   12.9295
  4.550  -67.8900   10.0476  -66.6430   13.2237  -66.6075   13.1516  -71.0317   10.2468  -65.3261   12.2836  -65.4180   12.3209
  4.560  -66.5900    9.5638  -65.4825   12.5975  -65.4478   12.5300  -69.5360    9.6928  -64.2244   11.7301  -64.3176   11.7690
  4.570  -65.3501    9.1306  -64.3654   12.0298  -64.3312   11.9662  -68.1176    9.2012  -63.1616   11.2268  -63.2564   11.2673
  4.580  -64.1655    8.7417  -63.2891   11.5139  -63.2553   11.4534  -66.7698    8.7635  -62.1357   10.7682  -62.2321   10.8103
  4.590  -63.0317    8.3914  -62.2512   11.0439  -62.2175   10.9860  -65.4865    8.3725  -61.1445   10.3495  -61.2425   10.3932
  4.600  -61.9447    8.0751  -61.2493   10.6149  -61.2155   10.5591  -64.2624    8.0221  -60.1858    9.9664  -60.2856   10.0118
  4.610  -60.9010    7.7890  -60.2813   10.2225  -60.2471   10.1684  -63.0925    7.7074  -59.2579    9.6154  -59.3595    9.6625
  4.620  -59.8972    7.5297  -59.3449    9.8631  -59.3103    9.8103  -61.9724    7.4240  -58.3587    9.2934  -58.4624    9.3421
  4.630  -58.9303    7.2942  -58.4382    9.5333  -58.4029    9.4815  -60.8981    7.1683  -57.4866    8.9974  -57.5924    9.0478
  4.640  -57.9976    7.0800  -57.5594    9.2303  -57.5232    9.1793  -59.8659    6.9373  -56.6400    8.7252  -56.7479    8.7773
  4.650  -57.0965    6.8852  -56.7067    8.9517  -56.6695    8.9012  -58.8727    6.7282  -55.8172    8.4745  -55.9274    8.5285
  4.660  -56.2249    6.7078  -55.8786    8.6952  -55.8401    8.6450  -57.9153    6.5388  -55.0169    8.2435  -55.1296    8.2994
  4.670  -55.3806    6.5462  -55.0735    8.4589  -55.0336    8.4088  -56.9912    6.3672  -54.2377    8.0307  -54.3529    8.0883
  4.680  -54.5616    6.3989  -54.2900    8.2411  -54.2485    8.1910  -56.0979    6.2116  -53.4783    7.8344  -53.5962    7.8940
  4.690  -53.7664    6.2649  -53.5267    8.0404  -53.4835    7.9901  -55.2331    6.0706  -52.7376    7.6534  -52.8582    7.7150
  4.700  -52.9932    6.1431  -52.7826    7.8555  -52.7374    7.8048  -54.3948    5.9429  -52.0143    7.4866  -52.1379    7.5502
  4.710  -52.2405    6.0324  -52.0563    7.6851  -52.0090    7.6340  -53.5811    5.8274  -51.3075    7.3330  -51.4341    7.3987
  4.720  -51.5070    5.9322  -51.3468    7.5282  -51.2973    7.4766  -52.7904    5.7232  -50.6162    7.1916  -50.7460    7.2594
  4.730  -50.7915    5.8416  -50.6532    7.3839  -50.6012    7.3317  -52.0209    5.6294  -49.9394    7.0617  -50.0726    7.1317
  4.740  -50.0927    5.7602  -49.9744    7.2515  -49.9198    7.1985  -51.2713    5.5452  -49.2763    6.9426  -49.4131    7.0149
  4.750  -49.4096    5.6873  -49.3096    7.1301  -49.2523    7.0764  -50.5402    5.4701  -48.6260    6.8336  -48.7666    6.9082
  4.760  -48.7412    5.6224  -48.6579    7.0192  -48.5977    6.9646  -49.8264    5.4035  -47.9878    6.7342  -48.1323    6.8113
  4.770  -48.0864    5.5653  -48.0186    6.9182  -47.9552    6.8626  -49.1287    5.3450  -47.3609    6.6439  -47.5096    6.7235
  4.780  -47.4445    5.5154  -47.3910    6.8266  -47.3243    6.7700  -48.4460    5.2940  -46.7447    6.5623  -46.8977    6.6444
  4.790  -46.8147    5.4726  -46.7742    6.7439  -46.7040    6.6863  -47.7773    5.2503  -46.1385    6.4891  -46.2960    6.5738
  4.800  -46.1960    5.4365  -46.1677    6.6698  -46.0938    6.6111  -47.1218    5.2135  -45.5416    6.4238  -45.7040    6.5112
  4.810  -45.5879    5.4070  -45.5708    6.6040  -45.4930    6.5441  -46.4784    5.1834  -44.9535    6.3662  -45.1209    6.4564
  4.820  -44.9896    5.3839  -44.9829    6.5462  -44.9010    6.4851  -45.8465    5.1599  -44.3736    6.3160  -44.5463    6.4092
  4.830  -44.4005    5.3670  -44.4035    6.4961  -44.3173    6.4337  -45.2252    5.1426  -43.8014    6.2732  -43.9797    6.3694
  4.840  -43.8200    5.3562  -43.8320    6.4536  -43.7413    6.3898  -44.6138    5.1316  -43.2362    6.2375  -43.4204    6.3368
  4.850  -43.2475    5.3515  -43.2679    6.4184  -43.1724    6.3533  -44.0117    5.1266  -42.6778    6.2087  -42.8682    6.3112
  4.860  -42.6824    5.3528  -42.7108    6.3906  -42.6103    6.3240  -43.4181    5.1277  -42.1254    6.1869  -42.3224    6.2927
  4.870  -42.1243    5.3601  -42.1602    6.3699  -42.0543    6.3018  -42.8324    5.1347  -41.5788    6.1719  -41.7828    6.2812
  4.880  -41.5727    5.3734  -41.6156    6.3563  -41.5041    6.2867  -42.2541    5.1478  -41.0375    6.1637  -41.2488    6.2765
  4.890  -41.0271    5.3928  -41.0766    6.3498  -40.9592    6.2786  -41.6827    5.1669  -40.5010    6.1623  -40.7200    6.2789
  4.900  -40.4871    5.4184  -40.5428    6.3504  -40.4192    6.2776  -41.1175    5.1920  -39.9690    6.1677  -40.1962    6.2881
  4.910  -39.9522    5.4501  -40.0138    6.3581  -39.8837    6.2836  -40.5582    5.2233  -39.4410    6.1800  -39.6769    6.3045
  4.920  -39.4222    5.4882  -39.4894    6.3730  -39.3523    6.2968  -40.0041    5.2609  -38.9167    6.1993  -39.1619    6.3279
  4.930  -38.8965    5.5327  -38.9691    6.3952  -38.8247    6.3173  -39.4549    5.3049  -38.3957    6.2257  -38.6507    6.3586
  4.940  -38.3749    5.5839  -38.4526    6.4249  -38.3004    6.3451  -38.9102    5.3554  -37.8777    6.2594  -38.1431    6.3968
  4.950  -37.8570    5.6420  -37.9396    6.4621  -37.7792    6.3804  -38.3694    5.4127  -37.3623    6.3004  -37.6389    6.4425
  4.960  -37.3425    5.7071  -37.4298    6.5070  -37.2608    6.4234  -37.8323    5.4770  -36.8492    6.3491  -37.1377    6.4960
  4.970  -36.8312    5.7796  -36.9230    6.5599  -36.7447    6.4744  -37.2985    5.5485  -36.3381    6.4056  -36.6392    6.5576
  4.980  -36.3228    5.8596  -36.4190    6.6211  -36.2309    6.5335  -36.7675    5.6275  -35.8288    6.4703  -36.1434    6.6275
  4.990  -35.8171    5.9476  -35.9175    6.6907  -35.7189    6.6010  -36.2392    5.7144  -35.3208    6.5434  -35.6500    6.7060
  5.000  -35.3138    6.0438  -35.4183    6.7690  -35.2086    6.6772  -35.7131    5.8094  -34.8140    6.6252  -35.1588    6.7936
  5.010  -34.8129    6.1485  -34.9213    6.8565  -34.6997    6.7625  -35.1889    5.9130  -34.3082    6.7162  -34.6697    6.8904
  5.020  -34.3142    6.2622  -34.4264    6.9534  -34.1921    6.8573  -34.6666    6.0255  -33.8030    6.8167  -34.1827    6.9971
  5.030  -33.8175    6.3853  -33.9334    7.0601  -33.6855    6.9618  -34.1457    6.1474  -33.2983    6.9272  -33.6975    7.1139
  5.040  -33.3229    6.5181  -33.4424    7.1771  -33.1798    7.0765  -33.6260    6.2792  -32.7940    7.0482  -33.2143    7.2414
  5.050  -32.8302    6.6611  -32.9533    7.3047  -32.6750    7.2018  -33.1075    6.4213  -32.2898    7.1801  -32.7330    7.3801
  5.060  -32.3397    6.8148  -32.4662    7.4434  -32.1708    7.3382  -32.5899    6.5742  -31.7856    7.3235  -32.2538    7.5305
  5.070  -31.8512    6.9794  -31.9811    7.5936  -31.6673    7.4862  -32.0732    6.7387  -31.2813    7.4789  -31.7768    7.6931
  5.080  -31.3649    7.1556  -31.4982    7.7558  -31.1644    7.6461  -31.5572    6.9151  -30.7768    7.6470  -31.3021    7.8685
  5.090  -30.8810    7.3436  -31.0177    7.9303  -30.6621    7.8186  -31.0418    7.1041  -30.2721    7.8284  -30.8301    8.0572
  5.100  -30.3998    7.5439  -30.5397    8.1176  -30.1604    8.0040  -30.5270    7.3064  -29.7671    8.0238  -30.3612    8.2598
  5.110  -29.9213    7.7567  -30.0647    8.3180  -29.6593    8.2027  -30.0128    7.5225  -29.2618    8.2338  -29.8957    8.4769
  5.120  -29.4459    7.9822  -29.5929    8.5319  -29.1588    8.4153  -29.4992    7.7531  -28.7562    8.4592  -29.4343    8.7089
  5.130  -28.9738    8.2207  -29.1246    8.7594  -28.6588    8.6421  -28.9861    7.9988  -28.2501    8.7006  -28.9774    8.9563
  5.140  -28.5051    8.4722  -28.6601    9.0006  -28.1593    8.8835  -28.4734    8.2603  -27.7436    8.9590  -28.5258    9.2195
  5.150  -28.0399    8.7367  -28.1997    9.2556  -27.6599    9.1399  -27.9610    8.5383  -27.2366    9.2350  -28.0802    9.4986
  5.160  -27.5782    9.0138  -27.7434    9.5242  -27.1602    9.4116  -27.4487    8.8335  -26.7287    9.5295  -27.6413    9.7938
  5.170  -27.1195    9.3034  -27.2913    9.8063  -26.6596    9.6991  -26.9360    9.1467  -26.2197    9.8437  -27.2099   10.1049
  5.180  -26.6630    9.6050  -26.8430   10.1014  -26.1571   10.0029  -26.4224    9.4789  -25.7090   10.1788  -26.7866   10.4319
  5.190  -26.2076    9.9185  -26.3977   10.4094  -25.6514   10.3239  -25.9071    9.8314  -25.1960   10.5361  -26.3720   10.7741
  5.200  -25.7514   10.2436  -25.9542   10.7300  -25.1407   10.6634  -25.3888   10.2056  -24.6798   10.9178  -25.9661   11.1309
  5.210  -25.2915   10.5808  -25.5106   11.0631  -24.6229   11.0234  -24.8662   10.6039  -24.1594   11.3265  -25.5690   11.5014
  5.220  -24.8245   10.9312  -25.0644   11.4095  -24.0956   11.4067  -24.3377   11.0294  -23.6338   11.7656  -25.1797   11.8847
  5.230  -24.3458   11.2973  -24.6122   11.7706  -23.5560   11.8178  -23.8017   11.4865  -23.1022   12.2397  -24.7968   12.2800
  5.240  -23.8504   11.6840  -24.1501   12.1494  -23.0021   12.2626  -23.2570   11.9812  -22.5644   12.7550  -24.4178   12.6869
  5.250  -23.3335   12.0987  -23.6741   12.5511  -22.4324   12.7490  -22.7035   12.5214  -22.0218   13.3189  -24.0393   13.1058
  5.260  -22.7916   12.5527  -23.1809   12.9832  -21.8476   13.2868  -22.1433   13.1169  -21.4777   13.9403  -23.6569   13.5388
  5.270  -22.2247   13.0605  -22.6689   13.4562  -21.2512   13.8872  -21.5821   13.7790  -20.9388   14.6286  -23.2658   13.9899
  5.280  -21.6385   13.6386  -22.1404   13.9825  -20.6503   14.5618  -21.0301   14.5186  -20.4155   15.3926  -22.8614   14.4663
  5.290  -21.0458   14.3029  -21.6023   14.5750  -20.0562   15.3212  -20.5027   15.3443  -19.9220   16.2381  -22.4413   14.9777
  5.300  -20.4659   15.0645  -21.0668   15.2447  -19.4838   16.1728  -20.0189   16.2592  -19.4751   17.1668  -22.0057   15.5364
  5.310  -19.9214   15.9268  -20.5496   15.9977  -18.9500   17.1199  -19.5986   17.2594  -19.0914   18.1747  -21.5592   16.1560
  5.320  -19.4341   16.8847  -20.0667   16.8349  -18.4716   18.1612  -19.2583   18.3348  -18.7852   19.2530  -21.1113   16.8492
  5.330  -19.0202   17.9278  -19.6320   17.7525  -18.0634   19.2920  -19.0088   19.4717  -18.5657   20.3905  -20.6751   17.6266
  5.340  -18.6901   19.0438  -19.2558   18.7454  -17.7378   20.5060  -18.8550   20.6570  -18.4381   21.5766  -20.2667   18.4955
  5.350  -18.4492   20.2224  -18.9457   19.8091  -17.5050   21.7971  -18.7979   21.8807  -18.4049   22.8035  -19.9039   19.4596
  5.360  -18.3011   21.4569  -18.7086   20.9409  -17.3745   23.1603  -18.8383   23.1373  -18.4682   24.0663  -19.6050   20.5191
  5.370  -18.2502   22.7436  -18.5525   22.1402  -17.3569   24.5917  -18.9785   24.4241  -18.6323   25.3628  -19.3886   21.6716
  5.380  -18.3038   24.0807  -18.4879   23.4067  -17.4653   26.0872  -19.2246   25.7396  -18.9048   26.6909  -19.2733   22.9118
  5.390  -18.4725   25.4659  -18.5285   24.7391  -17.7157   27.6412  -19.5863   27.0812  -19.2966   28.0474  -19.2780   24.2318
  5.400  -18.7703   26.8949  -18.6908   26.1339  -18.1267   29.2449  -20.0763   28.4431  -19.8214   29.4259  -19.4219   25.6207
  5.410  -19.2140   28.3594  -18.9940   27.5834  -18.7196   30.8842  -20.7092   29.8157  -20.4948   30.8155  -19.7243   27.0638
  5.420  -19.8217   29.8462  -19.4584   29.0752  -19.5157   32.5382  -21.5000   31.1836  -21.3325   32.1996  -20.2039   28.5420
  5.430  -20.6116   31.3356  -20.1046   30.5904  -20.5352   34.1788  -22.4624   32.5259  -22.3488   33.5558  -20.8778   30.0310
  5.440  -21.5995   32.8015  -20.9516   32.1036  -21.7940   35.7692  -23.6067   33.8160  -23.5542   34.8555  -21.7601   31.5009
  5.450  -22.7969   34.2108  -22.0143   33.5824  -23.3009   37.2654  -24.9378   35.0218  -24.9535   36.0647  -22.8600   32.9162
  5.460  -24.2081   35.5249  -23.3013   34.9878  -25.0543   38.6168  -26.4535   36.1076  -26.5437   37.1455  -24.1794   34.2368
  5.470  -25.8284   36.7009  -24.8125   36.2755  -27.0394   39.7701  -28.1424   37.0359  -28.3121   38.0580  -25.7111   35.4190
  5.480  -27.6418   37.6949  -26.5365   37.3989  -29.2267   40.6729  -29.9834   37.7698  -30.2354   38.7634  -27.4367   36.4190
  5.490  -29.6204   38.4649  -28.4494   38.3118  -31.5712   41.2787  -31.9454   38.2767  -32.2795   39.2275  -29.3262   37.1957
  5.500  -31.7246   38.9753  -30.5144   38.9730  -34.0149   41.5529  -33.9882   38.5310  -34.4009   39.4241  -31.3384   37.7149
  5.510  -33.9054   39.2006  -32.6836   39.3505  -36.4900   41.4764  -36.0654   38.5172  -36.5491   39.3381  -33.4231   37.9528
  5.520  -36.1075   39.1279  -34.9007   39.4253  -38.9254   41.0490  -38.1270   38.2318  -38.6706   38.9674  -35.5246   37.8994
  5.530  -38.2737   38.7591  -37.1056   39.1933  -41.2525   40.2895  -40.1237   37.6836  -40.7125   38.3235  -37.5861   37.5590
  5.540  -40.3497   38.1103  -39.2398   38.6662  -43.4114   39.2335  -42.0104   36.8929  -42.6275   37.4306  -39.5551   36.9502
  5.550  -42.2883   37.2100  -41.2509   37.8697  -45.3554   37.9290  -43.7495   35.8895  -44.3768   36.3228  -41.3867   36.1036
  5.560  -44.0522   36.0957  -43.0963   36.8407  -47.0535   36.4315  -45.3128   34.7099  -45.9322   35.0407  -43.0470   35.0579
  5.570  -45.6159   34.8107  -44.7458   35.6228  -48.4905   34.7981  -46.6822   33.3934  -47.2773   33.6280  -44.5138   33.8560
  5.580  -46.9656   33.3993  -46.1816   34.2625  -49.6655   33.0834  -47.8496   31.9800  -48.4062   32.1277  -45.7767   32.5415
  5.590  -48.0979   31.9047  -47.3980   32.8050  -50.5890   31.3357  -48.8158   30.5069  -49.3229   30.5795  -46.8356   31.1552
  5.600  -49.0186   30.3656  -48.3989   31.2917  -51.2801   29.5955  -49.5883   29.0074  -50.0381   29.0181  -47.6981   29.7333
  5.610  -49.7397   28.8154  -49.1957   29.7583  -51.7626   27.8942  -50.1799   27.5097  -50.5681   27.4719  -48.3780   28.3059
  5.620  -50.2778   27.2813  -49.8050   28.2339  -52.0632   26.2553  -50.6067   26.0366  -50.9317   25.9634  -48.8922   26.8969
  5.630  -50.6518   25.7844  -50.2460   26.7412  -52.2084   24.6944  -50.8863   24.6056  -51.1494   24.5090  -49.2595   25.5241
  5.640  -50.8816   24.3403  -50.5390   25.2966  -52.2237   23.2208  -51.0368   23.2294  -51.2411   23.1199  -49.4987   24.2001
  5.650  -50.9867   22.9597  -50.7039   23.9113  -52.1323   21.8388  -51.0761   21.9166  -51.2263   21.8030  -49.6277   22.9330
  5.660  -50.9856   21.6492  -50.7594   22.5924  -51.9547   20.5491  -51.0208   20.6725  -51.1223   20.5618  -49.6632   21.7275
  5.670  -50.8952   20.4123  -50.7226   21.3434  -51.7086   19.3494  -50.8861   19.4995  -50.9450   19.3970  -49.6199   20.5855
  5.680  -50.7307   19.2499  -50.6087   20.1657  -51.4088   18.2358  -50.6856   18.3980  -50.7079   18.3075  -49.5105   19.5072
  5.690  -50.5054   18.1612  -50.4307   19.0585  -51.0675   17.2033  -50.4315   17.3670  -50.4229   17.2907  -49.3461   18.4911
  5.700  -50.2308   17.1441  -50.2000   18.0200  -50.6946   16.2463  -50.1340   16.4040  -50.1000   16.3432  -49.1361   17.5355
  5.710  -49.9169   16.1957  -49.9264   17.0477  -50.2981   15.3593  -49.8022   15.5063  -49.7474   15.4613  -48.8886   16.6376
  5.720  -49.5720   15.3123  -49.6181   16.1385  -49.8846   14.5369  -49.4436   14.6703  -49.3722   14.6409  -48.6102   15.7949
  5.730  -49.2032   14.4903  -49.2821   15.2889  -49.4590   13.7737  -49.0646   13.8923  -48.9802   13.8777  -48.3068   15.0043
  5.740  -48.8164   13.7257  -48.9243   14.4957  -49.0256   13.0651  -48.6705   13.1686  -48.5760   13.1677  -47.9832   14.2631
  5.750  -48.4166   13.0145  -48.5499   13.7554  -48.5876   12.4064  -48.2659   12.4954  -48.1636   12.5071  -47.6437   13.5683
  5.760  -48.0079   12.3530  -48.1629   13.0645  -48.1475   11.7938  -47.8543   11.8691  -47.7461   11.8922  -47.2919   12.9172
  5.770  -47.5935   11.7375  -47.7671   12.4198  -47.7076   11.2234  -47.4388   11.2861  -47.3263   11.3193  -46.9308   12.3072
  5.780  -47.1762   11.1645  -47.3655   11.8181  -47.2696   10.6919  -47.0218   10.7432  -46.9061   10.7854  -46.5631   11.7355
  5.790  -46.7584   10.6308  -46.9604   11.2563  -46.8347   10.1961  -46.6053   10.2373  -46.4874   10.2875  -46.1911   11.1998
  5.800  -46.3417   10.1333  -46.5541   10.7317  -46.4042    9.7333  -46.1909    9.7655  -46.0714    9.8226  -45.8166   10.6977
  5.810  -45.9277    9.6693  -46.1483   10.2416  -45.9788    9.3009  -45.7799    9.3251  -45.6594    9.3883  -45.4413   10.2269
  5.820  -45.5175    9.2360  -45.7444    9.7834  -45.5592    8.8966  -45.3733    8.9136  -45.2522    8.9821  -45.0666    9.7853
  5.830  -45.1120    8.8311  -45.3436    9.3547  -45.1461    8.5181  -44.9718    8.5289  -44.8505    8.6020  -44.6936    9.3709
  5.840  -44.7120    8.4524  -44.9467    8.9534  -44.7397    8.1635  -44.5761    8.1688  -44.4547    8.2459  -44.3232    8.9818
  5.850  -44.3180    8.0978  -44.5547    8.5775  -44.3404    7.8310  -44.1866    7.8313  -44.0654    7.9120  -43.9562    8.6163
  5.860  -43.9304    7.7655  -44.1680    8.2250  -43.9484    7.5190  -43.8037    7.5149  -43.6827    7.5985  -43.5933    8.2726
  5.870  -43.5495    7.4537  -43.7870    7.8943  -43.5638    7.2258  -43.4275    7.2177  -43.3069    7.3041  -43.2348    7.9493
  5.880  -43.1754    7.1609  -43.4123    7.5836  -43.1867    6.9501  -43.0583    6.9385  -42.9381    7.0271  -42.8814    7.6449
  5.890  -42.8084    6.8857  -43.0439    7.2915  -42.8171    6.6907  -42.6961    6.6758  -42.5764    6.7665  -42.5331    7.3581
  5.900  -42.4484    6.6268  -42.6820    7.0167  -42.4550    6.4463  -42.3409    6.4285  -42.2217    6.5208  -42.1903    7.0877
  5.910  -42.0955    6.3829  -42.3268    6.7579  -42.1003    6.2158  -41.9927    6.1953  -41.8741    6.2892  -41.8531    6.8325
  5.920  -41.7497    6.1529  -41.9783    6.5140  -41.7530    5.9983  -41.6514    5.9753  -41.5334    6.0705  -41.5216    6.5915
  5.930  -41.4108    5.9359  -41.6366    6.2838  -41.4128    5.7928  -41.3170    5.7675  -41.1997    5.8638  -41.1959    6.3637
  5.940  -41.0788    5.7309  -41.3014    6.0664  -41.0798    5.5986  -40.9894    5.5711  -40.8727    5.6684  -40.8760    6.1482
  5.950  -40.7536    5.5370  -40.9729    5.8609  -40.7537    5.4147  -40.6685    5.3852  -40.5524    5.4833  -40.5619    5.9441
  5.960  -40.4350    5.3536  -40.6509    5.6665  -40.4343    5.2405  -40.3540    5.2091  -40.2386    5.3080  -40.2536    5.7508
  5.970  -40.1229    5.1798  -40.3353    5.4824  -40.1216    5.0754  -40.0459    5.0423  -39.9311    5.1417  -39.9510    5.5674
  5.980  -39.8171    5.0150  -40.0260    5.3080  -39.8154    4.9188  -39.7440    4.8839  -39.6299    4.9839  -39.6539    5.3934
  5.990  -39.5176    4.8586  -39.7229    5.1424  -39.5154    4.7700  -39.4482    4.7336  -39.3348    4.8340  -39.3625    5.2281
  6.000  -39.2241    4.7101  -39.4258    4.9853  -39.2216    4.6286  -39.1583    4.5907  -39.0456    4.6914  -39.0764    5.0710
  6.010  -38.9365    4.5689  -39.1346    4.8360  -38.9338    4.4940  -38.8742    4.4547  -38.7621    4.5558  -38.7957    4.9214
  6.020  -38.6546    4.4346  -38.8492    4.6939  -38.6517    4.3660  -38.5956    4.3254  -38.4843    4.4266  -38.5203    4.7791
  6.030  -38.3783    4.3067  -38.5693    4.5588  -38.3753    4.2440  -38.3225    4.2021  -38.2118    4.3035  -38.2499    4.6435
  6.040  -38.1074    4.1849  -38.2949    4.4300  -38.1043    4.1276  -38.0546    4.0845  -37.9447    4.1860  -37.9846    4.5141
  6.050  -37.8417    4.0687  -38.0259    4.3073  -37.8386    4.0166  -37.7919    3.9724  -37.6827    4.0740  -37.7241    4.3907
  6.060  -37.5812    3.9578  -37.7619    4.1902  -37.5780    3.9106  -37.5342    3.8653  -37.4257    3.9669  -37.4684    4.2729
  6.070  -37.3256    3.8519  -37.5030    4.0784  -37.3225    3.8093  -37.2813    3.7629  -37.1735    3.8645  -37.2173    4.1603
  6.080  -37.0748    3.7507  -37.2490    3.9716  -37.0717    3.7124  -37.0331    3.6651  -36.9261    3.7666  -36.9707    4.0526
  6.090  -36.8287    3.6538  -36.9997    3.8694  -36.8257    3.6197  -36.7895    3.5714  -36.6831    3.6728  -36.7286    3.9495
  6.100  -36.5871    3.5612  -36.7549    3.7717  -36.5842    3.5309  -36.5503    3.4818  -36.4447    3.5831  -36.4907    3.8508
  6.110  -36.3500    3.4724  -36.5147    3.6782  -36.3471    3.4458  -36.3154    3.3959  -36.2105    3.4970  -36.2569    3.7563
  6.120  -36.1170    3.3874  -36.2788    3.5885  -36.1143    3.3642  -36.0846    3.3135  -35.9804    3.4144  -36.0273    3.6656
  6.130  -35.8882    3.3059  -36.0471    3.5026  -35.8856    3.2859  -35.8579    3.2344  -35.7544    3.3352  -35.8015    3.5786
  6.140  -35.6635    3.2276  -35.8195    3.4201  -35.6610    3.2108  -35.6352    3.1586  -35.5324    3.2591  -35.5796    3.4952
  6.150  -35.4426    3.1525  -35.5958    3.3410  -35.4402    3.1386  -35.4162    3.0857  -35.3141    3.1860  -35.3615    3.4150
  6.160  -35.2255    3.0803  -35.3760    3.2650  -35.2233    3.0692  -35.2010    3.0157  -35.0996    3.1157  -35.1469    3.3379
  6.170  -35.0121    3.0109  -35.1599    3.1919  -35.0100    3.0024  -34.9893    2.9483  -34.8887    3.0480  -34.9359    3.2638
  6.180  -34.8022    2.9442  -34.9475    3.1217  -34.8004    2.9381  -34.7811    2.8835  -34.6812    2.9829  -34.7284    3.1924
  6.190  -34.5958    2.8800  -34.7386    3.0541  -34.5941    2.8763  -34.5763    2.8211  -34.4771    2.9202  -34.5241    3.1238
  6.200  -34.3928    2.8181  -34.5332    2.9890  -34.3913    2.8167  -34.3748    2.7610  -34.2763    2.8598  -34.3232    3.0576
  6.210  -34.1930    2.7585  -34.3310    2.9263  -34.1917    2.7592  -34.1766    2.7031  -34.0788    2.8016  -34.1253    2.9939
  6.220  -33.9964    2.7011  -34.1321    2.8659  -33.9953    2.7038  -33.9814    2.6472  -33.8843    2.7454  -33.9306    2.9325
  6.230  -33.8030    2.6457  -33.9364    2.8076  -33.8020    2.6504  -33.7893    2.5933  -33.6929    2.6911  -33.7389    2.8732
  6.240  -33.6125    2.5923  -33.7437    2.7514  -33.6117    2.5987  -33.6001    2.5413  -33.5044    2.6388  -33.5500    2.8159
  6.250  -33.4249    2.5407  -33.5540    2.6972  -33.4243    2.5489  -33.4137    2.4911  -33.3187    2.5882  -33.3641    2.7607
  6.260  -33.2402    2.4909  -33.3672    2.6448  -33.2397    2.5007  -33.2302    2.4426  -33.1359    2.5393  -33.1808    2.7073
  6.270  -33.0582    2.4428  -33.1832    2.5942  -33.0579    2.4541  -33.0494    2.3957  -32.9557    2.4920  -33.0003    2.6557
  6.280  -32.8789    2.3963  -33.0020    2.5452  -32.8788    2.4091  -32.8712    2.3504  -32.7782    2.4463  -32.8224    2.6058
  6.290  -32.7023    2.3513  -32.8234    2.4979  -32.7024    2.3655  -32.6956    2.3065  -32.6033    2.4020  -32.6471    2.5575
  6.300  -32.5282    2.3077  -32.6474    2.4521  -32.5284    2.3233  -32.5225    2.2640  -32.4309    2.3591  -32.4742    2.5108
  6.310  -32.3565    2.2656  -32.4740    2.4078  -32.3570    2.2824  -32.3518    2.2229  -32.2609    2.3176  -32.3038    2.4656
  6.320  -32.1873    2.2248  -32.3030    2.3649  -32.1879    2.2428  -32.1835    2.1831  -32.0933    2.2774  -32.1357    2.4218
  6.330  -32.0205    2.1852  -32.1344    2.3234  -32.0212    2.2044  -32.0175    2.1446  -31.9280    2.2384  -31.9700    2.3793
  6.340  -31.8559    2.1469  -31.9682    2.2831  -31.8569    2.1672  -31.8538    2.1072  -31.7649    2.2006  -31.8065    2.3382
  6.350  -31.6936    2.1098  -31.8042    2.2440  -31.6947    2.1311  -31.6923    2.0709  -31.6040    2.1639  -31.6452    2.2983
  6.360  -31.5335    2.0738  -31.6425    2.2061  -31.5347    2.0960  -31.5330    2.0357  -31.4453    2.1283  -31.4860    2.2596
  6.370  -31.3755    2.0388  -31.4829    2.1694  -31.3769    2.0620  -31.3757    2.0016  -31.2887    2.0937  -31.3289    2.2220
  6.380  -31.2195    2.0049  -31.3255    2.1337  -31.2211    2.0290  -31.2205    1.9684  -31.1342    2.0601  -31.1739    2.1855
  6.390  -31.0656    1.9720  -31.1701    2.0991  -31.0674    1.9969  -31.0673    1.9362  -30.9816    2.0275  -31.0209    2.1501
  6.400  -30.9137    1.9400  -31.0168    2.0654  -30.9156    1.9657  -30.9160    1.9050  -30.8309    1.9958  -30.8698    2.1157
  6.410  -30.7637    1.9089  -30.8654    2.0327  -30.7658    1.9353  -30.7667    1.8746  -30.6822    1.9650  -30.7206    2.0822
  6.420  -30.6157    1.8787  -30.7159    2.0010  -30.6178    1.9058  -30.6192    1.8450  -30.5353    1.9350  -30.5733    2.0497
  6.430  -30.4694    1.8493  -30.5683    1.9701  -30.4717    1.8772  -30.4735    1.8163  -30.3903    1.9058  -30.4278    2.0180
  6.440  -30.3250    1.8207  -30.4226    1.9400  -30.3274    1.8492  -30.3296    1.7884  -30.2470    1.8774  -30.2840    1.9873
  6.450  -30.1823    1.7929  -30.2786    1.9108  -30.1849    1.8221  -30.1874    1.7612  -30.1054    1.8498  -30.1420    1.9573
  6.460  -30.0413    1.7659  -30.1364    1.8823  -30.0440    1.7956  -30.0470    1.7347  -29.9656    1.8229  -30.0017    1.9282
  6.470  -29.9020    1.7395  -29.9959    1.8546  -29.9049    1.7698  -29.9082    1.7089  -29.8274    1.7966  -29.8631    1.8998
  6.480  -29.7644    1.7139  -29.8571    1.8276  -29.7673    1.7447  -29.7710    1.6838  -29.6908    1.7711  -29.7261    1.8722
  6.490  -29.6283    1.6889  -29.7199    1.8013  -29.6314    1.7202  -29.6354    1.6594  -29.5558    1.7462  -29.5907    1.8452
  6.500  -29.4939    1.6646  -29.5843    1.7757  -29.4971    1.6963  -29.5014    1.6355  -29.4224    1.7219  -29.4568    1.8190
  6.510  -29.3610    1.6409  -29.4503    1.7508  -29.3643    1.6731  -29.3689    1.6123  -29.2904    1.6983  -29.3245    1.7934
  6.520  -29.2296    1.6177  -29.3178    1.7264  -29.2330    1.6504  -29.2379    1.5896  -29.1600    1.6752  -29.1936    1.7684
  6.530  -29.0996    1.5952  -29.1868    1.7027  -29.1032    1.6282  -29.1083    1.5676  -29.0310    1.6526  -29.0642    1.7441
  6.540  -28.9711    1.5732  -29.0573    1.6795  -28.9748    1.6066  -28.9802    1.5460  -28.9034    1.6306  -28.9362    1.7203
  6.550  -28.8441    1.5517  -28.9292    1.6569  -28.8478    1.5855  -28.8535    1.5250  -28.7773    1.6092  -28.8097    1.6972
  6.560  -28.7184    1.5308  -28.8025    1.6348  -28.7223    1.5649  -28.7281    1.5044  -28.6525    1.5882  -28.6845    1.6745
  6.570  -28.5941    1.5103  -28.6772    1.6133  -28.5980    1.5447  -28.6041    1.4844  -28.5290    1.5677  -28.5606    1.6524
  6.580  -28.4711    1.4904  -28.5533    1.5923  -28.4751    1.5251  -28.4814    1.4648  -28.4068    1.5477  -28.4381    1.6309
  6.590  -28.3494    1.4709  -28.4307    1.5717  -28.3535    1.5059  -28.3600    1.4457  -28.2860    1.5282  -28.3168    1.6098
  6.600  -28.2290    1.4518  -28.3094    1.5517  -28.2332    1.4871  -28.2399    1.4270  -28.1664    1.5091  -28.1969    1.5892
  6.610  -28.1098    1.4332  -28.1893    1.5320  -28.1142    1.4687  -28.1210    1.4088  -28.0480    1.4904  -28.0781    1.5691
  6.620  -27.9919    1.4150  -28.0705    1.5129  -27.9963    1.4508  -28.0033    1.3909  -27.9309    1.4721  -27.9606    1.5494
  6.630  -27.8752    1.3973  -27.9530    1.4941  -27.8797    1.4332  -27.8869    1.3735  -27.8149    1.4542  -27.8443    1.5302
  6.640  -27.7596    1.3799  -27.8366    1.4758  -27.7642    1.4160  -27.7716    1.3564  -27.7001    1.4368  -27.7292    1.5114
  6.650  -27.6452    1.3629  -27.7214    1.4578  -27.6499    1.3992  -27.6574    1.3397  -27.5865    1.4197  -27.6152    1.4930
  6.660  -27.5320    1.3462  -27.6074    1.4403  -27.5368    1.3827  -27.5444    1.3234  -27.4740    1.4029  -27.5023    1.4749
  6.670  -27.4199    1.3300  -27.4945    1.4231  -27.4247    1.3666  -27.4325    1.3074  -27.3625    1.3865  -27.3906    1.4573
  6.680  -27.3089    1.3140  -27.3828    1.4063  -27.3138    1.3508  -27.3217    1.2918  -27.2522    1.3705  -27.2799    1.4401
  6.690  -27.1989    1.2984  -27.2721    1.3899  -27.2039    1.3354  -27.2119    1.2765  -27.1430    1.3548  -27.1703    1.4232
  6.700  -27.0901    1.2832  -27.1625    1.3738  -27.0951    1.3203  -27.1032    1.2615  -27.0347    1.3394  -27.0618    1.4067
  6.710  -26.9822    1.2682  -27.0539    1.3580  -26.9873    1.3054  -26.9955    1.2468  -26.9275    1.3243  -26.9543    1.3905
  6.720  -26.8754    1.2536  -26.9464    1.3425  -26.8806    1.2909  -26.8889    1.2324  -26.8214    1.3095  -26.8478    1.3746
  6.730  -26.7696    1.2393  -26.8399    1.3274  -26.7748    1.2767  -26.7832    1.2184  -26.7162    1.2950  -26.7423    1.3591
  6.740  -26.6647    1.2252  -26.7344    1.3126  -26.6701    1.2627  -26.6785    1.2046  -26.6120    1.2808  -26.6378    1.3438
  6.750  -26.5609    1.2114  -26.6299    1.2980  -26.5662    1.2490  -26.5748    1.1910  -26.5087    1.2669  -26.5342    1.3289
  6.760  -26.4580    1.1980  -26.5263    1.2838  -26.4634    1.2356  -26.4720    1.1778  -26.4064    1.2532  -26.4316    1.3143
  6.770  -26.3560    1.1847  -26.4237    1.2698  -26.3615    1.2224  -26.3702    1.1648  -26.3050    1.2399  -26.3299    1.2999
  6.780  -26.2550    1.1718  -26.3221    1.2561  -26.2605    1.2095  -26.2693    1.1520  -26.2045    1.2267  -26.2292    1.2858
  6.790  -26.1548    1.1590  -26.2213    1.2426  -26.1604    1.1968  -26.1692    1.1395  -26.1049    1.2138  -26.1293    1.2720
  6.800  -26.0555    1.1466  -26.1215    1.2294  -26.0612    1.1844  -26.0701    1.1273  -26.0062    1.2012  -26.0303    1.2585
  6.810  -25.9572    1.1343  -26.0225    1.2165  -25.9629    1.1722  -25.9718    1.1153  -25.9084    1.1888  -25.9322    1.2452
  6.820  -25.8597    1.1223  -25.9244    1.2038  -25.8654    1.1602  -25.8744    1.1035  -25.8114    1.1766  -25.8350    1.2322
  6.830  -25.7630    1.1106  -25.8272    1.1913  -25.7688    1.1485  -25.7778    1.0919  -25.7153    1.1646  -25.7386    1.2194
  6.840  -25.6671    1.0990  -25.7308    1.1791  -25.6730    1.1369  -25.6821    1.0805  -25.6200    1.1529  -25.6430    1.2068
  6.850  -25.5721    1.0877  -25.6353    1.1671  -25.5780    1.1256  -25.5871    1.0693  -25.5255    1.1414  -25.5482    1.1945
  6.860  -25.4779    1.0765  -25.5405    1.1553  -25.4838    1.1145  -25.4930    1.0584  -25.4317    1.1300  -25.4543    1.1824
  6.870  -25.3845    1.0656  -25.4466    1.1437  -25.3905    1.1035  -25.3997    1.0476  -25.3388    1.1189  -25.3611    1.1705
  6.880  -25.2919    1.0548  -25.3535    1.1323  -25.2979    1.0928  -25.3071    1.0371  -25.2467    1.1080  -25.2687    1.1588
  6.890  -25.2000    1.0443  -25.2611    1.1212  -25.2060    1.0822  -25.2153    1.0267  -25.1553    1.0972  -25.1771    1.1474
  6.900  -25.1089    1.0339  -25.1695    1.1102  -25.1150    1.0718  -25.1243    1.0165  -25.0647    1.0867  -25.0862    1.1361
  6.910  -25.0186    1.0237  -25.0787    1.0994  -25.0247    1.0616  -25.0340    1.0065  -24.9748    1.0763  -24.9961    1.1250
  6.920  -24.9289    1.0137  -24.9886    1.0888  -24.9351    1.0516  -24.9445    0.9966  -24.8856    1.0661  -24.9067    1.1141
  6.930  -24.8401    1.0039  -24.8993    1.0784  -24.8462    1.0417  -24.8556    0.9870  -24.7972    1.0561  -24.8180    1.1034
  6.940  -24.7519    0.9942  -24.8106    1.0681  -24.7581    1.0320  -24.7675    0.9774  -24.7094    1.0462  -24.7301    1.0929
  6.950  -24.6644    0.9847  -24.7227    1.0580  -24.6706    1.0225  -24.6801    0.9681  -24.6224    1.0365  -24.6428    1.0826
  6.960  -24.5776    0.9754  -24.6355    1.0481  -24.5839    1.0131  -24.5933    0.9589  -24.5361    1.0270  -24.5563    1.0724
  6.970  -24.4915    0.9662  -24.5490    1.0384  -24.4978    1.0039  -24.5073    0.9499  -24.4504    1.0176  -24.4704    1.0624
  6.980  -24.4061    0.9572  -24.4632    1.0288  -24.4124    0.9948  -24.4219    0.9410  -24.3654    1.0084  -24.3852    1.0526
  6.990  -24.3214    0.9483  -24.3780    1.0194  -24.3277    0.9859  -24.3372    0.9322  -24.2810    0.9993  -24.3006    1.0429
  7.000  -24.2373    0.9396  -24.2935    1.0101  -24.2436    0.9771  -24.2531    0.9236  -24.1973    0.9904  -24.2167    1.0334
  7.010  -24.1538    0.9310  -24.2096    1.0010  -24.1602    0.9684  -24.1697    0.9152  -24.1143    0.9816  -24.1334    1.0240
  7.020  -24.0710    0.9225  -24.1264    0.9920  -24.0774    0.9599  -24.0869    0.9068  -24.0318    0.9729  -24.0508    1.0148
  7.030  -23.9888    0.9142  -24.0439    0.9832  -23.9952    0.9515  -24.0047    0.8987  -23.9500    0.9644  -23.9688    1.0058
  7.040  -23.9072    0.9060  -23.9619    0.9745  -23.9136    0.9433  -23.9232    0.8906  -23.8688    0.9560  -23.8874    0.9968
  7.050  -23.8262    0.8980  -23.8806    0.9659  -23.8327    0.9352  -23.8422    0.8827  -23.7882    0.9478  -23.8066    0.9881
  7.060  -23.7459    0.8900  -23.7999    0.9575  -23.7524    0.9272  -23.7619    0.8748  -23.7083    0.9397  -23.7265    0.9794
  7.070  -23.6661    0.8822  -23.7197    0.9492  -23.6726    0.9193  -23.6821    0.8672  -23.6289    0.9317  -23.6469    0.9709
  7.080  -23.5869    0.8746  -23.6402    0.9410  -23.5934    0.9115  -23.6030    0.8596  -23.5500    0.9238  -23.5679    0.9625
  7.090  -23.5083    0.8670  -23.5613    0.9330  -23.5148    0.9039  -23.5244    0.8521  -23.4718    0.9160  -23.4895    0.9543
  7.100  -23.4303    0.8595  -23.4829    0.9251  -23.4368    0.8963  -23.4464    0.8448  -23.3941    0.9084  -23.4116    0.9461
  7.110  -23.3528    0.8522  -23.4051    0.9173  -23.3594    0.8889  -23.3689    0.8376  -23.3170    0.9008  -23.3343    0.9381
  7.120  -23.2759    0.8450  -23.3279    0.9096  -23.2825    0.8816  -23.2920    0.8304  -23.2404    0.8934  -23.2575    0.9303
  7.130  -23.1995    0.8379  -23.2512    0.9020  -23.2061    0.8744  -23.2156    0.8234  -23.1644    0.8861  -23.1813    0.9225
  7.140  -23.1237    0.8309  -23.1751    0.8945  -23.1303    0.8673  -23.1398    0.8165  -23.0889    0.8789  -23.1057    0.9148
  7.150  -23.0484    0.8239  -23.0995    0.8872  -23.0550    0.8603  -23.0645    0.8097  -23.0139    0.8718  -23.0306    0.9073
  7.160  -22.9736    0.8171  -23.0244    0.8799  -22.9803    0.8534  -22.9898    0.8030  -22.9395    0.8648  -22.9560    0.8999
  7.170  -22.8994    0.8104  -22.9499    0.8728  -22.9060    0.8466  -22.9155    0.7964  -22.8655    0.8579  -22.8819    0.8925
  7.180  -22.8257    0.8038  -22.8759    0.8657  -22.8323    0.8399  -22.8418    0.7898  -22.7921    0.8510  -22.8083    0.8853
  7.190  -22.7524    0.7973  -22.8024    0.8588  -22.7591    0.8333  -22.7686    0.7834  -22.7192    0.8443  -22.7352    0.8782
  7.200  -22.6797    0.7909  -22.7294    0.8520  -22.6864    0.8268  -22.6958    0.7771  -22.6468    0.8377  -22.6627    0.8712
  7.210  -22.6075    0.7846  -22.6569    0.8452  -22.6141    0.8204  -22.6236    0.7708  -22.5749    0.8312  -22.5906    0.8643
  7.220  -22.5357    0.7783  -22.5849    0.8386  -22.5424    0.8140  -22.5518    0.7647  -22.5034    0.8248  -22.5190    0.8575
  7.230  -22.4645    0.7722  -22.5133    0.8320  -22.4711    0.8078  -22.4806    0.7586  -22.4325    0.8184  -22.4479    0.8507
  7.240  -22.3937    0.7661  -22.4423    0.8255  -22.4004    0.8016  -22.4098    0.7526  -22.3620    0.8122  -22.3773    0.8441
  7.250  -22.3234    0.7601  -22.3717    0.8191  -22.3301    0.7955  -22.3395    0.7467  -22.2920    0.8060  -22.3071    0.8376
  7.260  -22.2535    0.7542  -22.3017    0.8128  -22.2602    0.7895  -22.2696    0.7409  -22.2224    0.7999  -22.2374    0.8311
  7.270  -22.1841    0.7484  -22.2320    0.8066  -22.1908    0.7836  -22.2002    0.7352  -22.1533    0.7939  -22.1682    0.8248
  7.280  -22.1152    0.7427  -22.1629    0.8005  -22.1219    0.7778  -22.1313    0.7295  -22.0846    0.7880  -22.0994    0.8185
  7.290  -22.0467    0.7370  -22.0942    0.7945  -22.0534    0.7720  -22.0628    0.7239  -22.0164    0.7821  -22.0310    0.8123
  7.300  -21.9787    0.7314  -22.0259    0.7885  -21.9854    0.7663  -21.9947    0.7184  -21.9487    0.7763  -21.9631    0.8062
  7.310  -21.9111    0.7259  -21.9581    0.7826  -21.9178    0.7607  -21.9271    0.7130  -21.8813    0.7706  -21.8957    0.8002
  7.320  -21.8439    0.7205  -21.8907    0.7768  -21.8506    0.7551  -21.8599    0.7076  -21.8144    0.7650  -21.8286    0.7942
  7.330  -21.7772    0.7151  -21.8237    0.7711  -21.7839    0.7497  -21.7932    0.7023  -21.7480    0.7595  -21.7620    0.7884
  7.340  -21.7108    0.7098  -21.7572    0.7654  -21.7175    0.7443  -21.7268    0.6971  -21.6819    0.7540  -21.6958    0.7826
  7.350  -21.6449    0.7046  -21.6911    0.7598  -21.6516    0.7389  -21.6609    0.6919  -21.6163    0.7486  -21.6301    0.7768
  7.360  -21.5794    0.6995  -21.6254    0.7543  -21.5861    0.7337  -21.5954    0.6868  -21.5510    0.7432  -21.5647    0.7712
  7.370  -21.5144    0.6944  -21.5602    0.7489  -21.5210    0.7285  -21.5303    0.6818  -21.4862    0.7380  -21.4998    0.7656
  7.380  -21.4497    0.6894  -21.4953    0.7435  -21.4564    0.7234  -21.4656    0.6768  -21.4218    0.7328  -21.4352    0.7601
  7.390  -21.3854    0.6844  -21.4308    0.7382  -21.3921    0.7183  -21.4013    0.6719  -21.3577    0.7276  -21.3711    0.7547
  7.400  -21.3215    0.6795  -21.3668    0.7330  -21.3282    0.7133  -21.3374    0.6671  -21.2941    0.7226  -21.3073    0.7494
  7.410  -21.2580    0.6747  -21.3031    0.7278  -21.2647    0.7083  -21.2739    0.6623  -21.2308    0.7176  -21.2440    0.7441
  7.420  -21.1949    0.6699  -21.2398    0.7227  -21.2016    0.7035  -21.2108    0.6576  -21.1680    0.7126  -21.1810    0.7389
  7.430  -21.1322    0.6652  -21.1769    0.7177  -21.1388    0.6986  -21.1480    0.6530  -21.1055    0.7077  -21.1184    0.7337
  7.440  -21.0698    0.6606  -21.1144    0.7127  -21.0765    0.6939  -21.0856    0.6484  -21.0434    0.7029  -21.0561    0.7286
  7.450  -21.0078    0.6560  -21.0523    0.7078  -21.0145    0.6892  -21.0236    0.6438  -20.9816    0.6981  -20.9943    0.7236
  7.460  -20.9462    0.6514  -20.9905    0.7029  -20.9529    0.6845  -20.9620    0.6393  -20.9202    0.6934  -20.9328    0.7186
  7.470  -20.8850    0.6470  -20.9291    0.6981  -20.8916    0.6800  -20.9007    0.6349  -20.8592    0.6888  -20.8717    0.7137
  7.480  -20.8241    0.6425  -20.8681    0.6934  -20.8307    0.6754  -20.8398    0.6305  -20.7986    0.6842  -20.8109    0.7089
  7.490  -20.7635    0.6382  -20.8074    0.6887  -20.7702    0.6709  -20.7793    0.6262  -20.7383    0.6796  -20.7505    0.7041
  7.500  -20.7034    0.6339  -20.7471    0.6840  -20.7100    0.6665  -20.7191    0.6219  -20.6783    0.6752  -20.6905    0.6993
  7.510  -20.6435    0.6296  -20.6871    0.6795  -20.6502    0.6621  -20.6592    0.6177  -20.6187    0.6707  -20.6307    0.6947
  7.520  -20.5840    0.6254  -20.6275    0.6750  -20.5907    0.6578  -20.5997    0.6135  -20.5594    0.6663  -20.5714    0.6901
  7.530  -20.5249    0.6212  -20.5683    0.6705  -20.5315    0.6535  -20.5405    0.6094  -20.5005    0.6620  -20.5124    0.6855
  7.540  -20.4661    0.6171  -20.5093    0.6661  -20.4727    0.6493  -20.4817    0.6054  -20.4419    0.6577  -20.4537    0.6810
  7.550  -20.4076    0.6131  -20.4508    0.6617  -20.4142    0.6452  -20.4232    0.6013  -20.3837    0.6535  -20.3953    0.6765
  7.560  -20.3495    0.6091  -20.3925    0.6574  -20.3561    0.6410  -20.3651    0.5974  -20.3257    0.6493  -20.3373    0.6721
  7.570  -20.2916    0.6051  -20.3346    0.6531  -20.2982    0.6370  -20.3072    0.5934  -20.2681    0.6452  -20.2796    0.6678
  7.580  -20.2341    0.6012  -20.2770    0.6489  -20.2407    0.6329  -20.2497    0.5896  -20.2109    0.6411  -20.2222    0.6635
  7.590  -20.1770    0.5973  -20.2197    0.6448  -20.1835    0.6289  -20.1925    0.5857  -20.1539    0.6371  -20.1652    0.6593
  7.600  -20.1201    0.5935  -20.1628    0.6407  -20.1267    0.6250  -20.1356    0.5819  -20.0972    0.6331  -20.1084    0.6551
  7.610  -20.0635    0.5897  -20.1061    0.6366  -20.0701    0.6211  -20.0791    0.5782  -20.0409    0.6292  -20.0520    0.6509
  7.620  -20.0073    0.5860  -20.0498    0.6326  -20.0139    0.6173  -20.0228    0.5745  -19.9849    0.6253  -19.9959    0.6468
  7.630  -19.9514    0.5823  -19.9938    0.6286  -19.9579    0.6135  -19.9669    0.5708  -19.9291    0.6214  -19.9401    0.6428
  7.640  -19.8957    0.5787  -19.9381    0.6247  -19.9023    0.6097  -19.9112    0.5672  -19.8737    0.6176  -19.8846    0.6388
  7.650  -19.8404    0.5751  -19.8827    0.6208  -19.8469    0.6060  -19.8559    0.5636  -19.8186    0.6139  -19.8294    0.6348
  7.660  -19.7854    0.5715  -19.8276    0.6170  -19.7919    0.6023  -19.8008    0.5601  -19.7638    0.6102  -19.7744    0.6309
  7.670  -19.7306    0.5680  -19.7728    0.6132  -19.7372    0.5987  -19.7460    0.5566  -19.7092    0.6065  -19.7198    0.6270
  7.680  -19.6762    0.5645  -19.7183    0.6094  -19.6827    0.5951  -19.6916    0.5531  -19.6550    0.6028  -19.6655    0.6232
  7.690  -19.6220    0.5611  -19.6641    0.6057  -19.6285    0.5915  -19.6374    0.5497  -19.6010    0.5993  -19.6115    0.6194
  7.700  -19.5682    0.5576  -19.6101    0.6020  -19.5746    0.5880  -19.5835    0.5463  -19.5473    0.5957  -19.5577    0.6157
  7.710  -19.5146    0.5543  -19.5565    0.5984  -19.5210    0.5846  -19.5299    0.5430  -19.4939    0.5922  -19.5042    0.6120
  7.720  -19.4612    0.5510  -19.5031    0.5948  -19.4677    0.5811  -19.4766    0.5397  -19.4408    0.5887  -19.4510    0.6084
  7.730  -19.4082    0.5477  -19.4501    0.5912  -19.4146    0.5777  -19.4235    0.5364  -19.3880    0.5853  -19.3981    0.6047
  7.740  -19.3554    0.5444  -19.3973    0.5877  -19.3619    0.5744  -19.3707    0.5332  -19.3354    0.5819  -19.3454    0.6012
  7.750  -19.3029    0.5412  -19.3447    0.5843  -19.3094    0.5710  -19.3182    0.5300  -19.2831    0.5785  -19.2931    0.5976
  7.760  -19.2507    0.5380  -19.2925    0.5808  -19.2571    0.5678  -19.2660    0.5268  -19.2311    0.5752  -19.2410    0.5942
  7.770  -19.1987    0.5349  -19.2405    0.5774  -19.2051    0.5645  -19.2140    0.5237  -19.1793    0.5719  -19.1891    0.5907
  7.780  -19.1470    0.5318  -19.1888    0.5741  -19.1534    0.5613  -19.1623    0.5206  -19.1278    0.5687  -19.1375    0.5873
  7.790  -19.0956    0.5287  -19.1373    0.5707  -19.1020    0.5581  -19.1108    0.5175  -19.0765    0.5655  -19.0862    0.5839
  7.800  -19.0444    0.5257  -19.0861    0.5675  -19.0508    0.5550  -19.0596    0.5145  -19.0255    0.5623  -19.0351    0.5806
  7.810  -18.9935    0.5227  -19.0352    0.5642  -18.9998    0.5519  -19.0086    0.5115  -18.9748    0.5591  -18.9843    0.5773
  7.820  -18.9428    0.5197  -18.9845    0.5610  -18.9491    0.5488  -18.9579    0.5085  -18.9243    0.5560  -18.9337    0.5740
  7.830  -18.8923    0.5168  -18.9340    0.5578  -18.8986    0.5457  -18.9075    0.5056  -18.8740    0.5530  -18.8834    0.5708
  7.840  -18.8421    0.5139  -18.8839    0.5547  -18.8484    0.5427  -18.8573    0.5027  -18.8240    0.5499  -18.8333    0.5676
  7.850  -18.7922    0.5110  -18.8339    0.5515  -18.7985    0.5397  -18.8073    0.4998  -18.7742    0.5469  -18.7835    0.5645
  7.860  -18.7425    0.5082  -18.7842    0.5485  -18.7488    0.5368  -18.7576    0.4970  -18.7247    0.5439  -18.7339    0.5613
  7.870  -18.6930    0.5054  -18.7348    0.5454  -18.6993    0.5339  -18.7081    0.4942  -18.6754    0.5410  -18.6846    0.5583
  7.880  -18.6438    0.5026  -18.6856    0.5424  -18.6500    0.5310  -18.6588    0.4914  -18.6264    0.5381  -18.6355    0.5552
  7.890  -18.5947    0.4999  -18.6366    0.5394  -18.6010    0.5282  -18.6098    0.4886  -18.5776    0.5352  -18.5866    0.5522
  7.900  -18.5460    0.4972  -18.5879    0.5365  -18.5522    0.5253  -18.5610    0.4859  -18.5290    0.5324  -18.5379    0.5492
  7.910  -18.4974    0.4945  -18.5394    0.5335  -18.5036    0.5226  -18.5125    0.4832  -18.4806    0.5296  -18.4895    0.5463
  7.920  -18.4491    0.4919  -18.4911    0.5306  -18.4553    0.5198  -18.4642    0.4806  -18.4325    0.5268  -18.4413    0.5433
  7.930  -18.4010    0.4892  -18.4430    0.5278  -18.4072    0.5171  -18.4161    0.4780  -18.3846    0.5240  -18.3933    0.5405
  7.940  -18.3531    0.4866  -18.3952    0.5250  -18.3593    0.5144  -18.3682    0.4754  -18.3369    0.5213  -18.3456    0.5376
  7.950  -18.3055    0.4841  -18.3476    0.5222  -18.3116    0.5117  -18.3205    0.4728  -18.2894    0.5186  -18.2980    0.5348
  7.960  -18.2580    0.4816  -18.3002    0.5194  -18.2642    0.5091  -18.2730    0.4702  -18.2421    0.5160  -18.2507    0.5320
  7.970  -18.2108    0.4791  -18.2531    0.5167  -18.2169    0.5065  -18.2258    0.4677  -18.1951    0.5133  -18.2036    0.5292
  7.980  -18.1638    0.4766  -18.2062    0.5139  -18.1699    0.5039  -18.1788    0.4652  -18.1482    0.5107  -18.1567    0.5265
  7.990  -18.1169    0.4741  -18.1594    0.5113  -18.1230    0.5013  -18.1320    0.4627  -18.1016    0.5082  -18.1100    0.5238
  8.000  -18.0703    0.4717  -18.1129    0.5086  -18.0764    0.4988  -18.0854    0.4603  -18.0552    0.5056  -18.0635    0.5212
  8.010  -18.0239    0.4693  -18.0666    0.5060  -18.0300    0.4963  -18.0390    0.4579  -18.0090    0.5031  -18.0173    0.5185
  8.020  -17.9777    0.4670  -18.0205    0.5034  -17.9838    0.4939  -17.9927    0.4555  -17.9630    0.5006  -17.9712    0.5159
  8.030  -17.9317    0.4646  -17.9746    0.5008  -17.9378    0.4914  -17.9467    0.4531  -17.9171    0.4982  -17.9253    0.5133
  8.040  -17.8859    0.4623  -17.9289    0.4983  -17.8919    0.4890  -17.9009    0.4508  -17.8715    0.4958  -17.8797    0.5108
  8.050  -17.8403    0.4601  -17.8834    0.4958  -17.8463    0.4866  -17.8553    0.4485  -17.8261    0.4934  -17.8342    0.5083
  8.060  -17.7949    0.4578  -17.8382    0.4933  -17.8009    0.4843  -17.8099    0.4462  -17.7809    0.4910  -17.7889    0.5058
  8.070  -17.7497    0.4556  -17.7931    0.4908  -17.7556    0.4819  -17.7647    0.4440  -17.7358    0.4887  -17.7438    0.5033
  8.080  -17.7046    0.4534  -17.7482    0.4884  -17.7106    0.4796  -17.7197    0.4417  -17.6910    0.4863  -17.6989    0.5009
  8.090  -17.6598    0.4512  -17.7035    0.4860  -17.6657    0.4774  -17.6748    0.4395  -17.6463    0.4841  -17.6542    0.4985
  8.100  -17.6151    0.4491  -17.6590    0.4836  -17.6210    0.4751  -17.6301    0.4373  -17.6018    0.4818  -17.6097    0.4962
  8.110  -17.5706    0.4470  -17.6146    0.4813  -17.5765    0.4729  -17.5857    0.4352  -17.5575    0.4796  -17.5653    0.4938
  8.120  -17.5263    0.4449  -17.5705    0.4790  -17.5322    0.4707  -17.5413    0.4330  -17.5134    0.4774  -17.5211    0.4915
  8.130  -17.4822    0.4428  -17.5265    0.4767  -17.4880    0.4685  -17.4972    0.4309  -17.4695    0.4752  -17.4772    0.4892
  8.140  -17.4382    0.4408  -17.4828    0.4744  -17.4441    0.4664  -17.4533    0.4288  -17.4257    0.4730  -17.4333    0.4870
  8.150  -17.3944    0.4387  -17.4392    0.4721  -17.4003    0.4643  -17.4095    0.4267  -17.3821    0.4709  -17.3897    0.4847
  8.160  -17.3508    0.4368  -17.3958    0.4699  -17.3566    0.4622  -17.3659    0.4247  -17.3387    0.4688  -17.3462    0.4825
  8.170  -17.3073    0.4348  -17.3525    0.4677  -17.3131    0.4601  -17.3224    0.4227  -17.2954    0.4667  -17.3029    0.4804
  8.180  -17.2640    0.4329  -17.3095    0.4655  -17.2698    0.4581  -17.2792    0.4207  -17.2524    0.4647  -17.2598    0.4782
  8.190  -17.2209    0.4309  -17.2666    0.4634  -17.2267    0.4561  -17.2361    0.4187  -17.2094    0.4627  -17.2168    0.4761
  8.200  -17.1780    0.4291  -17.2238    0.4613  -17.1837    0.4541  -17.1931    0.4167  -17.1667    0.4607  -17.1740    0.4740
  8.210  -17.1352    0.4272  -17.1813    0.4592  -17.1409    0.4521  -17.1503    0.4148  -17.1241    0.4587  -17.1314    0.4720
  8.220  -17.0925    0.4254  -17.1389    0.4571  -17.0982    0.4502  -17.1077    0.4129  -17.0816    0.4568  -17.0889    0.4699
  8.230  -17.0500    0.4236  -17.0967    0.4550  -17.0557    0.4483  -17.0652    0.4110  -17.0393    0.4549  -17.0466    0.4679
  8.240  -17.0077    0.4218  -17.0546    0.4530  -17.0133    0.4464  -17.0229    0.4092  -16.9972    0.4530  -17.0044    0.4659
  8.250  -16.9655    0.4200  -17.0127    0.4510  -16.9711    0.4445  -16.9807    0.4073  -16.9552    0.4511  -16.9624    0.4640
  8.260  -16.9234    0.4183  -16.9709    0.4490  -16.9291    0.4427  -16.9387    0.4055  -16.9134    0.4493  -16.9205    0.4621
  8.270  -16.8815    0.4166  -16.9293    0.4471  -16.8871    0.4409  -16.8968    0.4037  -16.8717    0.4475  -16.8787    0.4602
  8.280  -16.8397    0.4149  -16.8879    0.4452  -16.8454    0.4391  -16.8551    0.4019  -16.8302    0.4457  -16.8372    0.4583
  8.290  -16.7981    0.4132  -16.8466    0.4433  -16.8037    0.4373  -16.8135    0.4002  -16.7888    0.4440  -16.7957    0.4565
  8.300  -16.7566    0.4116  -16.8054    0.4414  -16.7622    0.4356  -16.7720    0.3985  -16.7475    0.4423  -16.7544    0.4547
  8.310  -16.7153    0.4100  -16.7645    0.4395  -16.7208    0.4339  -16.7307    0.3968  -16.7064    0.4406  -16.7132    0.4529
  8.320  -16.6741    0.4084  -16.7236    0.4377  -16.6796    0.4322  -16.6895    0.3951  -16.6654    0.4389  -16.6722    0.4511
  8.330  -16.6330    0.4069  -16.6829    0.4359  -16.6385    0.4306  -16.6485    0.3934  -16.6245    0.4373  -16.6313    0.4494
  8.340  -16.5920    0.4054  -16.6423    0.4341  -16.5975    0.4290  -16.6075    0.3918  -16.5838    0.4357  -16.5905    0.4477
  8.350  -16.5512    0.4039  -16.6019    0.4323  -16.5566    0.4274  -16.5667    0.3902  -16.5432    0.4341  -16.5499    0.4460
  8.360  -16.5104    0.4024  -16.5616    0.4306  -16.5159    0.4258  -16.5261    0.3886  -16.5027    0.4325  -16.5094    0.4444
  8.370  -16.4698    0.4010  -16.5214    0.4289  -16.4753    0.4243  -16.4855    0.3870  -16.4623    0.4310  -16.4690    0.4428
  8.380  -16.4293    0.3996  -16.4814    0.4272  -16.4348    0.4228  -16.4451    0.3855  -16.4221    0.4295  -16.4287    0.4412
  8.390  -16.3890    0.3982  -16.4415    0.4256  -16.3944    0.4213  -16.4047    0.3840  -16.3820    0.4280  -16.3886    0.4397
  8.400  -16.3487    0.3969  -16.4017    0.4239  -16.3541    0.4198  -16.3645    0.3825  -16.3420    0.4266  -16.3485    0.4382
  8.410  -16.3086    0.3955  -16.3621    0.4223  -16.3139    0.4184  -16.3244    0.3810  -16.3021    0.4252  -16.3086    0.4367
  8.420  -16.2685    0.3942  -16.3225    0.4207  -16.2738    0.4170  -16.2844    0.3796  -16.2623    0.4238  -16.2688    0.4352
  8.430  -16.2286    0.3930  -16.2831    0.4192  -16.2339    0.4156  -16.2445    0.3782  -16.2226    0.4225  -16.2291    0.4338
  8.440  -16.1887    0.3918  -16.2438    0.4176  -16.1940    0.4143  -16.2047    0.3768  -16.1831    0.4212  -16.1895    0.4324
  8.450  -16.1490    0.3906  -16.2047    0.4161  -16.1542    0.4130  -16.1651    0.3754  -16.1436    0.4199  -16.1500    0.4311
  8.460  -16.1093    0.3894  -16.1656    0.4147  -16.1145    0.4117  -16.1255    0.3740  -16.1042    0.4186  -16.1106    0.4297
  8.470  -16.0697    0.3883  -16.1266    0.4132  -16.0749    0.4105  -16.0860    0.3727  -16.0649    0.4174  -16.0712    0.4285
  8.480  -16.0302    0.3872  -16.0878    0.4118  -16.0354    0.4093  -16.0465    0.3714  -16.0257    0.4162  -16.0320    0.4272
  8.490  -15.9908    0.3861  -16.0490    0.4104  -15.9960    0.4081  -16.0072    0.3702  -15.9866    0.4151  -15.9929    0.4260
  8.500  -15.9515    0.3851  -16.0104    0.4090  -15.9566    0.4070  -15.9680    0.3689  -15.9476    0.4140  -15.9538    0.4248
  8.510  -15.9123    0.3841  -15.9719    0.4077  -15.9174    0.4059  -15.9288    0.3677  -15.9087    0.4129  -15.9149    0.4237
  8.520  -15.8731    0.3831  -15.9334    0.4063  -15.8782    0.4048  -15.8897    0.3665  -15.8698    0.4119  -15.8760    0.4226
  8.530  -15.8340    0.3822  -15.8951    0.4050  -15.8390    0.4038  -15.8507    0.3654  -15.8311    0.4109  -15.8372    0.4215
  8.540  -15.7949    0.3813  -15.8568    0.4038  -15.7999    0.4028  -15.8117    0.3642  -15.7924    0.4099  -15.7985    0.4205
  8.550  -15.7560    0.3804  -15.8187    0.4026  -15.7609    0.4018  -15.7728    0.3632  -15.7537    0.4090  -15.7598    0.4195
  8.560  -15.7170    0.3796  -15.7806    0.4014  -15.7220    0.4009  -15.7340    0.3621  -15.7152    0.4081  -15.7212    0.4185
  8.570  -15.6782    0.3789  -15.7426    0.4002  -15.6831    0.4000  -15.6952    0.3611  -15.6767    0.4073  -15.6826    0.4176
  8.580  -15.6393    0.3781  -15.7047    0.3990  -15.6442    0.3992  -15.6565    0.3600  -15.6382    0.4065  -15.6442    0.4168
  8.590  -15.6006    0.3775  -15.6668    0.3979  -15.6054    0.3984  -15.6178    0.3591  -15.5998    0.4057  -15.6057    0.4159
  8.600  -15.5618    0.3768  -15.6291    0.3969  -15.5666    0.3976  -15.5791    0.3581  -15.5614    0.4050  -15.5674    0.4152
  8.610  -15.5231    0.3762  -15.5914    0.3958  -15.5279    0.3969  -15.5405    0.3572  -15.5231    0.4043  -15.5290    0.4144
  8.620  -15.4844    0.3757  -15.5537    0.3948  -15.4891    0.3963  -15.5020    0.3564  -15.4849    0.4037  -15.4907    0.4138
  8.630  -15.4458    0.3752  -15.5162    0.3938  -15.4504    0.3957  -15.4634    0.3555  -15.4466    0.4032  -15.4525    0.4132
  8.640  -15.4071    0.3748  -15.4787    0.3929  -15.4117    0.3951  -15.4249    0.3547  -15.4084    0.4027  -15.4142    0.4126
  8.650  -15.3685    0.3744  -15.4412    0.3920  -15.3731    0.3946  -15.3864    0.3540  -15.3703    0.4022  -15.3760    0.4121
  8.660  -15.3299    0.3741  -15.4038    0.3911  -15.3344    0.3942  -15.3479    0.3533  -15.3321    0.4018  -15.3379    0.4116
  8.670  -15.2912    0.3738  -15.3665    0.3903  -15.2957    0.3938  -15.3094    0.3526  -15.2940    0.4015  -15.2997    0.4112
  8.680  -15.2526    0.3736  -15.3291    0.3895  -15.2571    0.3935  -15.2709    0.3520  -15.2558    0.4012  -15.2615    0.4109
  8.690  -15.2140    0.3735  -15.2919    0.3888  -15.2184    0.3932  -15.2324    0.3514  -15.2177    0.4010  -15.2234    0.4106
  8.700  -15.1753    0.3734  -15.2547    0.3881  -15.1797    0.3930  -15.1939    0.3509  -15.1796    0.4009  -15.1852    0.4104
  8.710  -15.1366    0.3734  -15.2175    0.3874  -15.1409    0.3929  -15.1554    0.3504  -15.1414    0.4008  -15.1471    0.4103
  8.720  -15.0979    0.3735  -15.1803    0.3868  -15.1021    0.3928  -15.1168    0.3500  -15.1033    0.4008  -15.1089    0.4102
  8.730  -15.0592    0.3736  -15.1431    0.3862  -15.0633    0.3928  -15.0782    0.3496  -15.0651    0.4009  -15.0707    0.4103
  8.740  -15.0203    0.3739  -15.1060    0.3857  -15.0244    0.3929  -15.0396    0.3493  -15.0269    0.4010  -15.0325    0.4104
  8.750  -14.9815    0.3742  -15.0689    0.3852  -14.9855    0.3931  -15.0009    0.3490  -14.9887    0.4013  -14.9942    0.4105
  8.760  -14.9425    0.3746  -15.0318    0.3848  -14.9465    0.3933  -14.9621    0.3488  -14.9504    0.4016  -14.9559    0.4108
  8.770  -14.9035    0.3751  -14.9946    0.3844  -14.9074    0.3937  -14.9233    0.3487  -14.9120    0.4020  -14.9175    0.4112
  8.780  -14.8644    0.3757  -14.9575    0.3841  -14.8682    0.3941  -14.8843    0.3486  -14.8736    0.4025  -14.8791    0.4117
  8.790  -14.8252    0.3764  -14.9204    0.3839  -14.8289    0.3947  -14.8453    0.3486  -14.8352    0.4032  -14.8406    0.4122
  8.800  -14.7859    0.3772  -14.8833    0.3837  -14.7895    0.3953  -14.8062    0.3487  -14.7966    0.4039  -14.8021    0.4129
  8.810  -14.7465    0.3782  -14.8461    0.3836  -14.7500    0.3961  -14.7670    0.3488  -14.7580    0.4047  -14.7634    0.4137
  8.820  -14.7069    0.3792  -14.8089    0.3835  -14.7103    0.3970  -14.7276    0.3491  -14.7193    0.4057  -14.7246    0.4146
  8.830  -14.6672    0.3804  -14.7716    0.3835  -14.6705    0.3980  -14.6881    0.3494  -14.6804    0.4068  -14.6858    0.4156
  8.840  -14.6273    0.3818  -14.7344    0.3836  -14.6305    0.3991  -14.6485    0.3499  -14.6414    0.4080  -14.6468    0.4168
  8.850  -14.5873    0.3832  -14.6970    0.3838  -14.5904    0.4004  -14.6086    0.3504  -14.6023    0.4094  -14.6077    0.4181
  8.860  -14.5470    0.3849  -14.6596    0.3840  -14.5500    0.4019  -14.5686    0.3511  -14.5631    0.4109  -14.5684    0.4196
  8.870  -14.5066    0.3867  -14.6221    0.3844  -14.5094    0.4035  -14.5284    0.3518  -14.5236    0.4126  -14.5290    0.4213
  8.880  -14.4659    0.3887  -14.5846    0.3848  -14.4686    0.4053  -14.4879    0.3527  -14.4841    0.4145  -14.4893    0.4231
  8.890  -14.4250    0.3909  -14.5470    0.3853  -14.4275    0.4073  -14.4472    0.3537  -14.4443    0.4165  -14.4495    0.4251
  8.900  -14.3838    0.3933  -14.5092    0.3859  -14.3861    0.4095  -14.4063    0.3549  -14.4043    0.4188  -14.4095    0.4273
  8.910  -14.3424    0.3960  -14.4714    0.3866  -14.3445    0.4119  -14.3650    0.3562  -14.3641    0.4212  -14.3693    0.4297
  8.920  -14.3006    0.3989  -14.4334    0.3874  -14.3025    0.4145  -14.3235    0.3577  -14.3236    0.4239  -14.3288    0.4324
  8.930  -14.2585    0.4020  -14.3953    0.3884  -14.2602    0.4174  -14.2816    0.3594  -14.2829    0.4269  -14.2881    0.4353
  8.940  -14.2160    0.4055  -14.3570    0.3895  -14.2174    0.4205  -14.2394    0.3612  -14.2418    0.4301  -14.2470    0.4384
  8.950  -14.1732    0.4092  -14.3186    0.3907  -14.1743    0.4240  -14.1967    0.3633  -14.2005    0.4336  -14.2057    0.4419
  8.960  -14.1299    0.4133  -14.2800    0.3920  -14.1308    0.4278  -14.1537    0.3656  -14.1589    0.4374  -14.1640    0.4456
  8.970  -14.0862    0.4177  -14.2412    0.3935  -14.0867    0.4319  -14.1101    0.3681  -14.1169    0.4415  -14.1220    0.4498
  8.980  -14.0420    0.4226  -14.2023    0.3952  -14.0422    0.4364  -14.0661    0.3709  -14.0745    0.4461  -14.0796    0.4542
  8.990  -13.9973    0.4279  -14.1631    0.3970  -13.9971    0.4413  -14.0216    0.3740  -14.0317    0.4510  -14.0368    0.4591
  9.000  -13.9520    0.4336  -14.1236    0.3990  -13.9514    0.4467  -13.9764    0.3774  -13.9884    0.4563  -13.9936    0.4644
  9.010  -13.9061    0.4399  -14.0839    0.4012  -13.9050    0.4526  -13.9307    0.3812  -13.9447    0.4621  -13.9498    0.4701
  9.020  -13.8596    0.4467  -14.0439    0.4036  -13.8580    0.4590  -13.8842    0.3854  -13.9005    0.4684  -13.9056    0.4764
  9.030  -13.8124    0.4541  -14.0036    0.4063  -13.8102    0.4660  -13.8370    0.3899  -13.8557    0.4753  -13.8608    0.4833
  9.040  -13.7645    0.4623  -13.9630    0.4092  -13.7616    0.4737  -13.7890    0.3950  -13.8104    0.4828  -13.8155    0.4907
  9.050  -13.7157    0.4711  -13.9221    0.4123  -13.7121    0.4821  -13.7402    0.4006  -13.7644    0.4910  -13.7695    0.4988
  9.060  -13.6661    0.4809  -13.8807    0.4157  -13.6617    0.4913  -13.6904    0.4067  -13.7177    0.4999  -13.7228    0.5077
  9.070  -13.6155    0.4915  -13.8390    0.4195  -13.6103    0.5014  -13.6396    0.4135  -13.6703    0.5096  -13.6754    0.5174
  9.080  -13.5640    0.5032  -13.7968    0.4236  -13.5578    0.5125  -13.5876    0.4211  -13.6222    0.5203  -13.6273    0.5280
  9.090  -13.5114    0.5160  -13.7542    0.4280  -13.5040    0.5248  -13.5345    0.4294  -13.5732    0.5319  -13.5783    0.5397
  9.100  -13.4576    0.5301  -13.7110    0.4328  -13.4490    0.5383  -13.4800    0.4387  -13.5234    0.5447  -13.5285    0.5524
  9.110  -13.4027    0.5457  -13.6673    0.4381  -13.3926    0.5532  -13.4242    0.4489  -13.4726    0.5588  -13.4777    0.5664
  9.120  -13.3464    0.5629  -13.6230    0.4438  -13.3346    0.5697  -13.3667    0.4604  -13.4209    0.5742  -13.4259    0.5818
  9.130  -13.2887    0.5819  -13.5781    0.4500  -13.2750    0.5880  -13.3075    0.4732  -13.3680    0.5912  -13.3731    0.5988
  9.140  -13.2295    0.6029  -13.5326    0.4568  -13.2137    0.6084  -13.2465    0.4875  -13.3141    0.6100  -13.3192    0.6176
  9.150  -13.1686    0.6263  -13.4862    0.4642  -13.1504    0.6312  -13.1834    0.5035  -13.2590    0.6308  -13.2641    0.6383
  9.160  -13.1062    0.6524  -13.4392    0.4723  -13.0851    0.6566  -13.1181    0.5216  -13.2027    0.6538  -13.2078    0.6613
  9.170  -13.0419    0.6816  -13.3912    0.4811  -13.0175    0.6852  -13.0503    0.5420  -13.1451    0.6794  -13.1502    0.6869
  9.180  -12.9757    0.7142  -13.3424    0.4907  -12.9476    0.7174  -12.9799    0.5651  -13.0862    0.7079  -13.0914    0.7154
  9.190  -12.9076    0.7508  -13.2926    0.5012  -12.8752    0.7537  -12.9066    0.5913  -13.0260    0.7398  -13.0312    0.7472
  9.200  -12.8376    0.7921  -13.2417    0.5127  -12.8000    0.7949  -12.8301    0.6213  -12.9645    0.7754  -12.9697    0.7828
  9.210  -12.7656    0.8387  -13.1896    0.5254  -12.7221    0.8418  -12.7501    0.6557  -12.9018    0.8154  -12.9070    0.8228
  9.220  -12.6916    0.8915  -13.1364    0.5393  -12.6412    0.8954  -12.6664    0.6953  -12.8380    0.8604  -12.8432    0.8677
  9.230  -12.6160    0.9515  -13.0817    0.5545  -12.5575    0.9570  -12.5787    0.7412  -12.7732    0.9112  -12.7785    0.9185
  9.240  -12.5389    1.0199  -13.0257    0.5714  -12.4710    1.0280  -12.4868    0.7946  -12.7079    0.9686  -12.7132    0.9759
  9.250  -12.4608    1.0980  -12.9680    0.5900  -12.3820    1.1103  -12.3906    0.8572  -12.6425    1.0336  -12.6478    1.0409
  9.260  -12.3825    1.1875  -12.9087    0.6106  -12.2911    1.2059  -12.2901    0.9307  -12.5777    1.1075  -12.5831    1.1147
  9.270  -12.3052    1.2903  -12.8474    0.6335  -12.1994    1.3177  -12.1856    1.0178  -12.5146    1.1913  -12.5200    1.1985
  9.280  -12.2305    1.4083  -12.7842    0.6590  -12.1086    1.4487  -12.0778    1.1213  -12.4547    1.2866  -12.4602    1.2938
  9.290  -12.1608    1.5438  -12.7187    0.6874  -12.0214    1.6026  -11.9682    1.2449  -12.4000    1.3947  -12.4056    1.4018
  9.300  -12.0997    1.6991  -12.6509    0.7193  -11.9422    1.7835  -11.8593    1.3928  -12.3534    1.5168  -12.3590    1.5239
  9.310  -12.0518    1.8764  -12.5803    0.7552  -11.8774    1.9956  -11.7555    1.5701  -12.3185    1.6538  -12.3242    1.6610
  9.320  -12.0234    2.0769  -12.5069    0.7959  -11.8363    2.2428  -11.6635    1.7820  -12.3002    1.8060  -12.3060    1.8132
  9.330  -12.0230    2.3006  -12.4304    0.8422  -11.8324    2.5267  -11.5937    2.0328  -12.3044    1.9719  -12.3104    1.9792
  9.340  -12.0606    2.5450  -12.3505    0.8953  -11.8832    2.8449  -11.5609    2.3248  -12.3379    2.1482  -12.3440    2.1555
  9.350  -12.1476    2.8031  -12.2672    0.9569  -12.0100    3.1868  -11.5845    2.6543  -12.4073    2.3280  -12.4137    2.3353
  9.360  -12.2951    3.0622  -12.1806    1.0289  -12.2336    3.5296  -11.6865    3.0082  -12.5179    2.5007  -12.5246    2.5080
  9.370  -12.5102    3.3027  -12.0917    1.1137  -12.5669    3.8357  -11.8858    3.3596  -12.6705    2.6518  -12.6777    2.6590
  9.380  -12.7911    3.4995  -12.0019    1.2140  -13.0030    4.0561  -12.1883    3.6683  -12.8590    2.7653  -12.8668    2.7723
  9.390  -13.1236    3.6271  -11.9137    1.3323  -13.5066    4.1446  -12.5771    3.8899  -13.0690    2.8280  -13.0774    2.8346
  9.400  -13.4808    3.6682  -11.8308    1.4708  -14.0177    4.0775  -13.0106    3.9923  -13.2799    2.8349  -13.2888    2.8408
  9.410  -13.8299    3.6202  -11.7570    1.6311  -14.4708    3.8671  -13.4352    3.9710  -13.4710    2.7915  -13.4803    2.7966
  9.420  -14.1419    3.4961  -11.6969    1.8142  -14.8192    3.5567  -13.8058    3.8493  -13.6275    2.7124  -13.6368    2.7165
  9.430  -14.3989    3.3185  -11.6559    2.0211  -15.0467    3.2009  -14.0990    3.6664  -13.7435    2.6158  -13.7526    2.6190
  9.440  -14.5956    3.1119  -11.6409    2.2522  -15.1634    2.8465  -14.3143    3.4602  -13.8216    2.5186  -13.8304    2.5209
  9.450  -14.7362    2.8964  -11.6608    2.5063  -15.1930    2.5241  -14.4656    3.2580  -13.8703    2.4332  -13.8786    2.4348
  9.460  -14.8302    2.6860  -11.7264    2.7795  -15.1626    2.2489  -14.5725    3.0745  -13.9010    2.3671  -13.9087    2.3680
  9.470  -14.8884    2.4884  -11.8497    3.0627  -15.0961    2.0245  -14.6537    2.9133  -13.9258    2.3221  -13.9328    2.3224
  9.480  -14.9211    2.3065  -12.0413    3.3406  -15.0127    1.8479  -14.7240    2.7708  -13.9562    2.2953  -13.9625    2.2952
  9.490  -14.9363    2.1395  -12.3066    3.5909  -14.9267    1.7120  -14.7926    2.6386  -14.0011    2.2793  -14.0065    2.2790
  9.500  -14.9393    1.9846  -12.6416    3.7869  -14.8477    1.6075  -14.8627    2.5069  -14.0648    2.2636  -14.0695    2.2631
  9.510  -14.9328    1.8388  -13.0293    3.9024  -14.7807    1.5244  -14.9313    2.3669  -14.1465    2.2364  -14.1503    2.2360
  9.520  -14.9173    1.6998  -13.4407    3.9196  -14.7270    1.4531  -14.9916    2.2141  -14.2393    2.1884  -14.2423    2.1882
  9.530  -14.8921    1.5668  -13.8405    3.8357  -14.6840    1.3861  -15.0355    2.0489  -14.3327    2.1146  -14.3350    2.1147
  9.540  -14.8567    1.4403  -14.1963    3.6635  -14.6475    1.3189  -15.0567    1.8762  -14.4157    2.0162  -14.4175    2.0168
  9.550  -14.8116    1.3217  -14.4863    3.4274  -14.6130    1.2498  -15.0528    1.7035  -14.4800    1.8991  -14.4814    1.9001
  9.560  -14.7578    1.2126  -14.7019    3.1549  -14.5770    1.1794  -15.0250    1.5379  -14.5212    1.7713  -14.5223    1.7728
  9.570  -14.6974    1.1138  -14.8458    2.8710  -14.5376    1.1092  -14.9772    1.3849  -14.5392    1.6408  -14.5401    1.6428
  9.580  -14.6324    1.0255  -14.9276    2.5939  -14.4941    1.0411  -14.9145    1.2473  -14.5364    1.5138  -14.5372    1.5162
  9.590  -14.5648    0.9472  -14.9596    2.3351  -14.4467    0.9764  -14.8418    1.1259  -14.5165    1.3943  -14.5173    1.3971
  9.600  -14.4961    0.8783  -14.9541    2.1003  -14.3961    0.9160  -14.7631    1.0203  -14.4834    1.2846  -14.4843    1.2877
  9.610  -14.4275    0.8177  -14.9215    1.8913  -14.3433    0.8604  -14.6816    0.9291  -14.4408    1.1854  -14.4417    1.1888
  9.620  -14.3597    0.7644  -14.8703    1.7074  -14.2891    0.8097  -14.5994    0.8506  -14.3916    1.0967  -14.3926    1.1003
  9.630  -14.2933    0.7175  -14.8069    1.5468  -14.2342    0.7637  -14.5182    0.7831  -14.3382    1.0177  -14.3392    1.0215
  9.640  -14.2286    0.6761  -14.7359    1.4070  -14.1791    0.7221  -14.4389    0.7249  -14.2821    0.9476  -14.2832    0.9515
  9.650  -14.1658    0.6394  -14.6607    1.2853  -14.1244    0.6845  -14.3620    0.6746  -14.2249    0.8854  -14.2260    0.8895
  9.660  -14.1050    0.6067  -14.5836    1.1795  -14.0703    0.6505  -14.2878    0.6309  -14.1672    0.8303  -14.1684    0.8344
  9.670  -14.0461    0.5776  -14.5062    1.0872  -14.0170    0.6198  -14.2165    0.5928  -14.1098    0.7812  -14.1111    0.7855
  9.680  -13.9892    0.5514  -14.4296    1.0065  -13.9648    0.5920  -14.1479    0.5595  -14.0531    0.7375  -14.0545    0.7419
  9.690  -13.9340    0.5279  -14.3545    0.9357  -13.9136    0.5668  -14.0821    0.5302  -13.9974    0.6985  -13.9989    0.7029
  9.700  -13.8807    0.5066  -14.2813    0.8734  -13.8636    0.5439  -14.0189    0.5043  -13.9429    0.6635  -13.9443    0.6680
  9.710  -13.8290    0.4873  -14.2102    0.8184  -13.8147    0.5231  -13.9582    0.4813  -13.8895    0.6321  -13.8911    0.6366
  9.720  -13.7789    0.4698  -14.1415    0.7697  -13.7670    0.5041  -13.8998    0.4607  -13.8375    0.6037  -13.8391    0.6083
  9.730  -13.7302    0.4537  -14.0750    0.7264  -13.7203    0.4867  -13.8436    0.4423  -13.7868    0.5781  -13.7884    0.5827
  9.740  -13.6830    0.4391  -14.0108    0.6877  -13.6748    0.4707  -13.7894    0.4258  -13.7374    0.5548  -13.7390    0.5594
  9.750  -13.6370    0.4256  -13.9488    0.6530  -13.6304    0.4560  -13.7371    0.4108  -13.6892    0.5337  -13.6909    0.5383
  9.760  -13.5923    0.4132  -13.8889    0.6219  -13.5869    0.4425  -13.6865    0.3972  -13.6423    0.5143  -13.6440    0.5190
  9.770  -13.5488    0.4017  -13.8311    0.5938  -13.5444    0.4300  -13.6376    0.3849  -13.5965    0.4966  -13.5983    0.5013
  9.780  -13.5063    0.3911  -13.7752    0.5684  -13.5029    0.4184  -13.5901    0.3736  -13.5519    0.4804  -13.5537    0.4851
  9.790  -13.4648    0.3812  -13.7212    0.5453  -13.4623    0.4077  -13.5441    0.3633  -13.5084    0.4655  -13.5102    0.4701
  9.800  -13.4244    0.3720  -13.6689    0.5243  -13.4225    0.3977  -13.4994    0.3538  -13.4659    0.4517  -13.4677    0.4563
  9.810  -13.3848    0.3635  -13.6182    0.5052  -13.3835    0.3884  -13.4560    0.3450  -13.4244    0.4390  -13.4262    0.4436
  9.820  -13.3460    0.3555  -13.5690    0.4876  -13.3453    0.3797  -13.4136    0.3369  -13.3838    0.4271  -13.3857    0.4318
  9.830  -13.3081    0.3480  -13.5213    0.4715  -13.3078    0.3715  -13.3724    0.3294  -13.3440    0.4162  -13.3460    0.4208
  9.840  -13.2709    0.3410  -13.4749    0.4567  -13.2711    0.3639  -13.3321    0.3224  -13.3051    0.4060  -13.3071    0.4106
  9.850  -13.2344    0.3343  -13.4298    0.4431  -13.2350    0.3568  -13.2928    0.3159  -13.2671    0.3964  -13.2690    0.4011
  9.860  -13.1986    0.3281  -13.3859    0.4304  -13.1995    0.3500  -13.2543    0.3098  -13.2297    0.3875  -13.2317    0.3921
  9.870  -13.1635    0.3223  -13.3430    0.4187  -13.1646    0.3437  -13.2167    0.3042  -13.1931    0.3792  -13.1951    0.3838
  9.880  -13.1290    0.3167  -13.3013    0.4079  -13.1303    0.3377  -13.1798    0.2988  -13.1572    0.3714  -13.1591    0.3760
  9.890  -13.0950    0.3115  -13.2605    0.3978  -13.0966    0.3320  -13.1437    0.2938  -13.1219    0.3640  -13.1239    0.3686
  9.900  -13.0616    0.3065  -13.2207    0.3883  -13.0634    0.3267  -13.1083    0.2891  -13.0872    0.3571  -13.0892    0.3617
  9.910  -13.0287    0.3018  -13.1818    0.3795  -13.0307    0.3216  -13.0735    0.2846  -13.0531    0.3505  -13.0551    0.3551
  9.920  -12.9963    0.2973  -13.1437    0.3713  -12.9984    0.3168  -13.0393    0.2804  -13.0195    0.3444  -13.0216    0.3489
  9.930  -12.9644    0.2931  -13.1064    0.3636  -12.9667    0.3122  -13.0057    0.2764  -12.9865    0.3385  -12.9886    0.3431
  9.940  -12.9329    0.2890  -13.0698    0.3563  -12.9353    0.3079  -12.9727    0.2726  -12.9540    0.3330  -12.9561    0.3375
  9.950  -12.9019    0.2851  -13.0339    0.3495  -12.9044    0.3037  -12.9402    0.2691  -12.9220    0.3277  -12.9241    0.3323
  9.960  -12.8713    0.2814  -12.9987    0.3430  -12.8739    0.2997  -12.9082    0.2656  -12.8904    0.3228  -12.8925    0.3273
  9.970  -12.8411    0.2779  -12.9641    0.3370  -12.8438    0.2960  -12.8767    0.2624  -12.8593    0.3180  -12.8614    0.3225
  9.980  -12.8112    0.2745  -12.9302    0.3312  -12.8140    0.2923  -12.8456    0.2593  -12.8286    0.3135  -12.8307    0.3180
  9.990  -12.7818    0.2713  -12.8968    0.3258  -12.7846    0.2889  -12.8150    0.2563  -12.7983    0.3092  -12.8004    0.3137
 10.000  -12.7526    0.2681  -12.8639    0.3206  -12.7555    0.2855  -12.7847    0.2535  -12.7684    0.3051  -12.7705    0.3095
