# Macroscopic dielectric function obtained with the BS equation.
#  RPA L0 with KS energies and KS wavefunctions     LOCAL FIELD EFFECTS INCLUDED
# RESONANT-ONLY calculation
# Coulomb term constructed with full W(G1,G2)
# Scissor operator energy =  0.8000 [eV]
# Tolerance = -0.0010 0.0000
# npweps  = 113
# npwwfn  = 259
# nbands  = 8
# loband  = 2
# nkibz   = 3
# nkbz    = 8
# Lorentzian broadening =  0.0001 [eV]
# List of q-points for the optical limit:
# q =  0.938821, 0.000000, 0.000000, [Reduced coords] 
# q =  0.000000, 0.938821, 0.000000, [Reduced coords] 
# q =  0.000000, 0.000000, 0.938821, [Reduced coords] 
# q =  0.000000, 0.813043, 0.813043, [Reduced coords] 
# q =  0.813043, 0.000000, 0.813043, [Reduced coords] 
# q =  0.813043, 0.813043, 0.000000, [Reduced coords] 
# omega [eV]    RE(eps(q=1)) IM(eps(q=1) RE(eps(q=2) ) ... 
  0.000   27.8903    0.2614   27.8834    0.2813   27.8884    0.2806   27.8853    0.2579   27.9073    0.2922   27.9063    0.2932
  0.010   27.9747    0.2630   27.9678    0.2830   27.9728    0.2824   27.9696    0.2595   27.9918    0.2940   27.9908    0.2950
  0.020   28.0596    0.2646   28.0526    0.2848   28.0577    0.2841   28.0545    0.2611   28.0768    0.2958   28.0758    0.2969
  0.030   28.1451    0.2662   28.1381    0.2865   28.1431    0.2859   28.1400    0.2627   28.1624    0.2977   28.1613    0.2987
  0.040   28.2311    0.2679   28.2240    0.2883   28.2291    0.2876   28.2260    0.2644   28.2485    0.2995   28.2475    0.3006
  0.050   28.3177    0.2696   28.3106    0.2901   28.3157    0.2894   28.3125    0.2661   28.3351    0.3014   28.3341    0.3024
  0.060   28.4048    0.2713   28.3977    0.2919   28.4028    0.2912   28.3996    0.2677   28.4224    0.3033   28.4214    0.3043
  0.070   28.4925    0.2730   28.4853    0.2937   28.4905    0.2931   28.4873    0.2694   28.5102    0.3052   28.5091    0.3062
  0.080   28.5807    0.2747   28.5735    0.2956   28.5787    0.2949   28.5755    0.2712   28.5985    0.3071   28.5975    0.3081
  0.090   28.6696    0.2765   28.6623    0.2974   28.6676    0.2968   28.6644    0.2729   28.6875    0.3090   28.6865    0.3101
  0.100   28.7590    0.2782   28.7517    0.2993   28.7570    0.2986   28.7538    0.2746   28.7770    0.3110   28.7760    0.3121
  0.110   28.8490    0.2800   28.8417    0.3012   28.8470    0.3005   28.8437    0.2764   28.8671    0.3130   28.8661    0.3140
  0.120   28.9396    0.2818   28.9322    0.3031   28.9375    0.3025   28.9343    0.2782   28.9579    0.3150   28.9568    0.3160
  0.130   29.0308    0.2836   29.0234    0.3051   29.0287    0.3044   29.0255    0.2800   29.0492    0.3170   29.0481    0.3181
  0.140   29.1226    0.2854   29.1152    0.3070   29.1205    0.3063   29.1173    0.2818   29.1411    0.3190   29.1401    0.3201
  0.150   29.2151    0.2873   29.2076    0.3090   29.2129    0.3083   29.2097    0.2836   29.2336    0.3211   29.2326    0.3222
  0.160   29.3081    0.2891   29.3006    0.3110   29.3060    0.3103   29.3027    0.2855   29.3268    0.3232   29.3258    0.3242
  0.170   29.4018    0.2910   29.3942    0.3130   29.3996    0.3123   29.3964    0.2874   29.4206    0.3253   29.4195    0.3263
  0.180   29.4961    0.2929   29.4885    0.3151   29.4939    0.3144   29.4907    0.2892   29.5150    0.3274   29.5140    0.3285
  0.190   29.5910    0.2949   29.5833    0.3171   29.5888    0.3164   29.5856    0.2912   29.6101    0.3295   29.6090    0.3306
  0.200   29.6866    0.2968   29.6789    0.3192   29.6844    0.3185   29.6811    0.2931   29.7058    0.3317   29.7047    0.3328
  0.210   29.7828    0.2988   29.7751    0.3213   29.7806    0.3206   29.7773    0.2950   29.8021    0.3339   29.8011    0.3350
  0.220   29.8797    0.3007   29.8719    0.3234   29.8775    0.3227   29.8742    0.2970   29.8992    0.3361   29.8981    0.3372
  0.230   29.9773    0.3027   29.9694    0.3255   29.9750    0.3248   29.9717    0.2990   29.9968    0.3383   29.9958    0.3394
  0.240   30.0755    0.3048   30.0676    0.3277   30.0732    0.3270   30.0699    0.3010   30.0952    0.3406   30.0941    0.3417
  0.250   30.1744    0.3068   30.1665    0.3299   30.1721    0.3292   30.1688    0.3030   30.1942    0.3428   30.1931    0.3439
  0.260   30.2740    0.3089   30.2660    0.3321   30.2717    0.3314   30.2684    0.3051   30.2939    0.3451   30.2929    0.3462
  0.270   30.3743    0.3110   30.3663    0.3343   30.3720    0.3336   30.3687    0.3072   30.3944    0.3474   30.3933    0.3486
  0.280   30.4753    0.3131   30.4672    0.3366   30.4729    0.3358   30.4696    0.3092   30.4955    0.3498   30.4944    0.3509
  0.290   30.5770    0.3152   30.5689    0.3388   30.5746    0.3381   30.5713    0.3114   30.5973    0.3522   30.5962    0.3533
  0.300   30.6794    0.3173   30.6712    0.3411   30.6770    0.3404   30.6737    0.3135   30.6999    0.3545   30.6988    0.3557
  0.310   30.7825    0.3195   30.7743    0.3435   30.7801    0.3427   30.7768    0.3157   30.8031    0.3570   30.8020    0.3581
  0.320   30.8864    0.3217   30.8781    0.3458   30.8840    0.3451   30.8806    0.3178   30.9071    0.3594   30.9060    0.3605
  0.330   30.9910    0.3239   30.9827    0.3482   30.9885    0.3474   30.9852    0.3201   31.0119    0.3619   31.0108    0.3630
  0.340   31.0963    0.3262   31.0880    0.3506   31.0939    0.3498   31.0905    0.3223   31.1174    0.3644   31.1162    0.3655
  0.350   31.2024    0.3284   31.1940    0.3530   31.2000    0.3522   31.1966    0.3245   31.2236    0.3669   31.2225    0.3680
  0.360   31.3093    0.3307   31.3008    0.3554   31.3068    0.3547   31.3035    0.3268   31.3306    0.3694   31.3295    0.3706
  0.370   31.4169    0.3330   31.4084    0.3579   31.4144    0.3572   31.4111    0.3291   31.4384    0.3720   31.4373    0.3732
  0.380   31.5253    0.3354   31.5168    0.3604   31.5228    0.3597   31.5195    0.3314   31.5470    0.3746   31.5458    0.3758
  0.390   31.6346    0.3377   31.6260    0.3629   31.6320    0.3622   31.6287    0.3338   31.6563    0.3772   31.6552    0.3784
  0.400   31.7446    0.3401   31.7359    0.3655   31.7420    0.3647   31.7386    0.3362   31.7665    0.3799   31.7653    0.3811
  0.410   31.8554    0.3426   31.8467    0.3680   31.8528    0.3673   31.8494    0.3386   31.8774    0.3826   31.8763    0.3837
  0.420   31.9670    0.3450   31.9582    0.3707   31.9644    0.3699   31.9610    0.3410   31.9892    0.3853   31.9880    0.3865
  0.430   32.0794    0.3475   32.0706    0.3733   32.0768    0.3725   32.0734    0.3435   32.1018    0.3880   32.1006    0.3892
  0.440   32.1927    0.3500   32.1839    0.3759   32.1901    0.3752   32.1867    0.3459   32.2152    0.3908   32.2141    0.3920
  0.450   32.3068    0.3525   32.2979    0.3786   32.3042    0.3779   32.3008    0.3484   32.3295    0.3936   32.3284    0.3948
  0.460   32.4218    0.3550   32.4129    0.3814   32.4191    0.3806   32.4158    0.3510   32.4447    0.3965   32.4435    0.3976
  0.470   32.5377    0.3576   32.5286    0.3841   32.5349    0.3834   32.5316    0.3535   32.5607    0.3993   32.5595    0.4005
  0.480   32.6544    0.3602   32.6453    0.3869   32.6516    0.3861   32.6482    0.3561   32.6775    0.4022   32.6764    0.4034
  0.490   32.7720    0.3629   32.7628    0.3897   32.7692    0.3889   32.7658    0.3588   32.7953    0.4052   32.7941    0.4063
  0.500   32.8904    0.3655   32.8812    0.3926   32.8876    0.3918   32.8843    0.3614   32.9139    0.4081   32.9128    0.4093
  0.510   33.0098    0.3682   33.0006    0.3954   33.0070    0.3947   33.0036    0.3641   33.0335    0.4111   33.0323    0.4123
  0.520   33.1301    0.3709   33.1208    0.3983   33.1273    0.3976   33.1239    0.3668   33.1540    0.4142   33.1528    0.4154
  0.530   33.2514    0.3737   33.2420    0.4013   33.2485    0.4005   33.2451    0.3696   33.2753    0.4172   33.2742    0.4184
  0.540   33.3735    0.3765   33.3641    0.4043   33.3706    0.4035   33.3672    0.3723   33.3977    0.4203   33.3965    0.4215
  0.550   33.4966    0.3793   33.4871    0.4073   33.4937    0.4065   33.4903    0.3751   33.5210    0.4235   33.5198    0.4247
  0.560   33.6207    0.3822   33.6111    0.4103   33.6177    0.4095   33.6143    0.3780   33.6452    0.4266   33.6440    0.4278
  0.570   33.7457    0.3851   33.7361    0.4134   33.7427    0.4126   33.7393    0.3809   33.7704    0.4298   33.7692    0.4311
  0.580   33.8717    0.3880   33.8620    0.4165   33.8687    0.4157   33.8653    0.3838   33.8966    0.4331   33.8954    0.4343
  0.590   33.9987    0.3909   33.9889    0.4197   33.9957    0.4189   33.9923    0.3867   34.0237    0.4364   34.0225    0.4376
  0.600   34.1267    0.3939   34.1169    0.4228   34.1236    0.4220   34.1203    0.3897   34.1519    0.4397   34.1507    0.4409
  0.610   34.2557    0.3969   34.2458    0.4261   34.2526    0.4253   34.2492    0.3927   34.2811    0.4430   34.2799    0.4443
  0.620   34.3857    0.4000   34.3758    0.4293   34.3826    0.4285   34.3793    0.3957   34.4114    0.4464   34.4101    0.4477
  0.630   34.5168    0.4031   34.5068    0.4326   34.5137    0.4318   34.5103    0.3988   34.5426    0.4499   34.5414    0.4511
  0.640   34.6489    0.4062   34.6389    0.4360   34.6458    0.4351   34.6424    0.4019   34.6749    0.4534   34.6737    0.4546
  0.650   34.7821    0.4094   34.7720    0.4393   34.7789    0.4385   34.7756    0.4051   34.8083    0.4569   34.8071    0.4581
  0.660   34.9164    0.4126   34.9062    0.4428   34.9132    0.4419   34.9098    0.4083   34.9428    0.4604   34.9416    0.4617
  0.670   35.0518    0.4159   35.0415    0.4462   35.0485    0.4454   35.0451    0.4115   35.0784    0.4640   35.0771    0.4653
  0.680   35.1882    0.4191   35.1779    0.4497   35.1849    0.4489   35.1816    0.4148   35.2150    0.4677   35.2138    0.4690
  0.690   35.3258    0.4225   35.3154    0.4533   35.3225    0.4524   35.3191    0.4181   35.3528    0.4714   35.3516    0.4727
  0.700   35.4645    0.4258   35.4541    0.4568   35.4612    0.4560   35.4578    0.4215   35.4917    0.4751   35.4905    0.4764
  0.710   35.6044    0.4292   35.5938    0.4605   35.6010    0.4596   35.5977    0.4249   35.6318    0.4789   35.6306    0.4802
  0.720   35.7454    0.4327   35.7348    0.4641   35.7420    0.4633   35.7387    0.4283   35.7731    0.4827   35.7718    0.4840
  0.730   35.8876    0.4362   35.8769    0.4679   35.8842    0.4670   35.8808    0.4318   35.9155    0.4866   35.9142    0.4879
  0.740   36.0310    0.4397   36.0202    0.4716   36.0275    0.4708   36.0242    0.4353   36.0591    0.4905   36.0578    0.4918
  0.750   36.1756    0.4433   36.1648    0.4754   36.1721    0.4746   36.1688    0.4389   36.2039    0.4945   36.2026    0.4958
  0.760   36.3214    0.4469   36.3105    0.4793   36.3179    0.4784   36.3146    0.4425   36.3499    0.4985   36.3486    0.4998
  0.770   36.4685    0.4506   36.4575    0.4832   36.4649    0.4824   36.4616    0.4461   36.4972    0.5026   36.4959    0.5039
  0.780   36.6168    0.4543   36.6057    0.4871   36.6132    0.4863   36.6099    0.4498   36.6457    0.5067   36.6444    0.5080
  0.790   36.7663    0.4581   36.7552    0.4911   36.7627    0.4903   36.7594    0.4536   36.7955    0.5109   36.7942    0.5122
  0.800   36.9172    0.4619   36.9060    0.4952   36.9135    0.4944   36.9102    0.4574   36.9466    0.5151   36.9453    0.5164
  0.810   37.0694    0.4657   37.0580    0.4993   37.0657    0.4985   37.0624    0.4612   37.0990    0.5194   37.0977    0.5207
  0.820   37.2228    0.4696   37.2114    0.5035   37.2191    0.5026   37.2158    0.4651   37.2527    0.5237   37.2514    0.5251
  0.830   37.3777    0.4736   37.3662    0.5077   37.3739    0.5068   37.3706    0.4691   37.4078    0.5281   37.4065    0.5295
  0.840   37.5338    0.4776   37.5223    0.5119   37.5300    0.5111   37.5267    0.4731   37.5642    0.5326   37.5629    0.5339
  0.850   37.6914    0.4817   37.6797    0.5163   37.6875    0.5154   37.6843    0.4771   37.7220    0.5371   37.7207    0.5384
  0.860   37.8503    0.4858   37.8386    0.5206   37.8464    0.5198   37.8432    0.4812   37.8812    0.5417   37.8799    0.5430
  0.870   38.0107    0.4899   37.9988    0.5251   38.0067    0.5242   38.0035    0.4854   38.0418    0.5463   38.0405    0.5476
  0.880   38.1724    0.4942   38.1605    0.5296   38.1685    0.5287   38.1652    0.4896   38.2038    0.5510   38.2025    0.5523
  0.890   38.3356    0.4984   38.3237    0.5341   38.3316    0.5332   38.3284    0.4939   38.3673    0.5557   38.3660    0.5571
  0.900   38.5003    0.5028   38.4883    0.5387   38.4963    0.5379   38.4931    0.4982   38.5323    0.5605   38.5309    0.5619
  0.910   38.6665    0.5072   38.6543    0.5434   38.6624    0.5425   38.6592    0.5026   38.6987    0.5654   38.6974    0.5667
  0.920   38.8342    0.5116   38.8219    0.5481   38.8301    0.5473   38.8269    0.5070   38.8667    0.5703   38.8653    0.5717
  0.930   39.0034    0.5161   38.9911    0.5529   38.9992    0.5520   38.9961    0.5115   39.0362    0.5753   39.0348    0.5767
  0.940   39.1742    0.5207   39.1617    0.5578   39.1700    0.5569   39.1668    0.5161   39.2072    0.5804   39.2058    0.5818
  0.950   39.3465    0.5253   39.3340    0.5627   39.3422    0.5618   39.3391    0.5207   39.3798    0.5856   39.3785    0.5869
  0.960   39.5204    0.5300   39.5078    0.5677   39.5161    0.5668   39.5130    0.5254   39.5540    0.5908   39.5527    0.5921
  0.970   39.6960    0.5348   39.6833    0.5728   39.6916    0.5719   39.6885    0.5302   39.7299    0.5961   39.7285    0.5974
  0.980   39.8732    0.5396   39.8603    0.5779   39.8688    0.5770   39.8657    0.5350   39.9074    0.6014   39.9060    0.6028
  0.990   40.0520    0.5445   40.0391    0.5831   40.0476    0.5822   40.0445    0.5399   40.0865    0.6068   40.0851    0.6082
  1.000   40.2326    0.5495   40.2195    0.5884   40.2281    0.5875   40.2250    0.5448   40.2673    0.6123   40.2660    0.6137
  1.010   40.4148    0.5545   40.4017    0.5937   40.4103    0.5928   40.4073    0.5499   40.4499    0.6179   40.4485    0.6193
  1.020   40.5988    0.5596   40.5856    0.5992   40.5942    0.5983   40.5912    0.5550   40.6342    0.6236   40.6328    0.6250
  1.030   40.7845    0.5648   40.7712    0.6047   40.7799    0.6038   40.7769    0.5601   40.8202    0.6293   40.8188    0.6307
  1.040   40.9721    0.5701   40.9586    0.6102   40.9674    0.6093   40.9644    0.5654   41.0081    0.6351   41.0067    0.6365
  1.050   41.1614    0.5754   41.1479    0.6159   41.1567    0.6150   41.1538    0.5707   41.1978    0.6410   41.1964    0.6424
  1.060   41.3526    0.5808   41.3389    0.6216   41.3478    0.6207   41.3449    0.5761   41.3893    0.6470   41.3879    0.6484
  1.070   41.5456    0.5863   41.5319    0.6275   41.5408    0.6265   41.5379    0.5816   41.5827    0.6531   41.5812    0.6545
  1.080   41.7406    0.5918   41.7267    0.6334   41.7357    0.6324   41.7328    0.5871   41.7779    0.6593   41.7765    0.6607
  1.090   41.9375    0.5975   41.9235    0.6394   41.9325    0.6384   41.9297    0.5928   41.9751    0.6655   41.9737    0.6669
  1.100   42.1363    0.6032   42.1222    0.6454   42.1313    0.6445   42.1285    0.5985   42.1743    0.6719   42.1729    0.6733
  1.110   42.3371    0.6090   42.3228    0.6516   42.3320    0.6507   42.3293    0.6043   42.3755    0.6783   42.3740    0.6797
  1.120   42.5399    0.6149   42.5255    0.6579   42.5348    0.6569   42.5320    0.6102   42.5786    0.6848   42.5772    0.6862
  1.130   42.7447    0.6209   42.7303    0.6642   42.7396    0.6633   42.7369    0.6162   42.7838    0.6915   42.7824    0.6929
  1.140   42.9517    0.6270   42.9371    0.6706   42.9464    0.6697   42.9438    0.6222   42.9911    0.6982   42.9897    0.6996
  1.150   43.1607    0.6331   43.1460    0.6772   43.1554    0.6762   43.1528    0.6284   43.2005    0.7050   43.1991    0.7064
  1.160   43.3719    0.6394   43.3570    0.6838   43.3665    0.6829   43.3639    0.6346   43.4121    0.7119   43.4106    0.7134
  1.170   43.5852    0.6457   43.5703    0.6906   43.5798    0.6896   43.5772    0.6410   43.6258    0.7190   43.6244    0.7204
  1.180   43.8008    0.6522   43.7857    0.6974   43.7953    0.6965   43.7928    0.6474   43.8418    0.7261   43.8403    0.7276
  1.190   44.0185    0.6587   44.0033    0.7043   44.0130    0.7034   44.0105    0.6540   44.0599    0.7334   44.0585    0.7348
  1.200   44.2386    0.6654   44.2233    0.7114   44.2330    0.7104   44.2306    0.6606   44.2804    0.7407   44.2789    0.7422
  1.210   44.4610    0.6721   44.4455    0.7186   44.4553    0.7176   44.4529    0.6674   44.5032    0.7482   44.5017    0.7497
  1.220   44.6857    0.6790   44.6701    0.7258   44.6800    0.7249   44.6776    0.6743   44.7283    0.7558   44.7268    0.7572
  1.230   44.9128    0.6860   44.8971    0.7332   44.9070    0.7323   44.9047    0.6812   44.9559    0.7635   44.9544    0.7650
  1.240   45.1424    0.6930   45.1265    0.7407   45.1365    0.7398   45.1342    0.6883   45.1858    0.7713   45.1843    0.7728
  1.250   45.3744    0.7002   45.3583    0.7483   45.3684    0.7474   45.3662    0.6955   45.4183    0.7793   45.4168    0.7808
  1.260   45.6089    0.7075   45.5927    0.7561   45.6029    0.7551   45.6007    0.7028   45.6532    0.7874   45.6517    0.7888
  1.270   45.8459    0.7149   45.8296    0.7639   45.8399    0.7630   45.8377    0.7102   45.8907    0.7956   45.8892    0.7971
  1.280   46.0856    0.7225   46.0691    0.7719   46.0794    0.7710   46.0774    0.7178   46.1308    0.8039   46.1293    0.8054
  1.290   46.3279    0.7301   46.3113    0.7801   46.3217    0.7791   46.3196    0.7254   46.3735    0.8124   46.3720    0.8139
  1.300   46.5728    0.7379   46.5561    0.7883   46.5665    0.7873   46.5646    0.7332   46.6190    0.8210   46.6175    0.8225
  1.310   46.8205    0.7458   46.8036    0.7967   46.8141    0.7957   46.8122    0.7412   46.8671    0.8298   46.8656    0.8313
  1.320   47.0710    0.7539   47.0539    0.8052   47.0645    0.8042   47.0627    0.7492   47.1180    0.8387   47.1165    0.8402
  1.330   47.3242    0.7621   47.3070    0.8139   47.3177    0.8129   47.3159    0.7574   47.3718    0.8477   47.3703    0.8492
  1.340   47.5803    0.7704   47.5629    0.8227   47.5737    0.8217   47.5720    0.7657   47.6284    0.8569   47.6269    0.8584
  1.350   47.8394    0.7788   47.8218    0.8316   47.8327    0.8306   47.8310    0.7742   47.8880    0.8663   47.8864    0.8678
  1.360   48.1014    0.7874   48.0837    0.8407   48.0946    0.8397   48.0930    0.7828   48.1505    0.8758   48.1490    0.8773
  1.370   48.3664    0.7962   48.3485    0.8500   48.3595    0.8490   48.3580    0.7916   48.4160    0.8855   48.4145    0.8870
  1.380   48.6345    0.8051   48.6164    0.8594   48.6275    0.8584   48.6261    0.8005   48.6846    0.8953   48.6831    0.8968
  1.390   48.9057    0.8141   48.8875    0.8690   48.8987    0.8680   48.8973    0.8096   48.9564    0.9053   48.9548    0.9068
  1.400   49.1801    0.8233   49.1617    0.8787   49.1730    0.8777   49.1717    0.8188   49.2313    0.9155   49.2298    0.9170
  1.410   49.4577    0.8327   49.4391    0.8886   49.4505    0.8876   49.4493    0.8282   49.5095    0.9259   49.5080    0.9273
  1.420   49.7386    0.8422   49.7198    0.8987   49.7313    0.8977   49.7302    0.8377   49.7910    0.9364   49.7894    0.9379
  1.430   50.0229    0.8519   50.0039    0.9090   50.0155    0.9080   50.0144    0.8474   50.0758    0.9471   50.0743    0.9486
  1.440   50.3106    0.8618   50.2914    0.9194   50.3031    0.9184   50.3021    0.8573   50.3641    0.9580   50.3625    0.9595
  1.450   50.6017    0.8718   50.5824    0.9301   50.5941    0.9290   50.5933    0.8674   50.6558    0.9691   50.6543    0.9706
  1.460   50.8964    0.8821   50.8769    0.9409   50.8887    0.9399   50.8879    0.8777   50.9511    0.9804   50.9496    0.9819
  1.470   51.1947    0.8925   51.1750    0.9519   51.1869    0.9509   51.1862    0.8881   51.2501    0.9919   51.2485    0.9934
  1.480   51.4967    0.9031   51.4768    0.9631   51.4888    0.9621   51.4882    0.8987   51.5527    1.0036   51.5511    1.0052
  1.490   51.8024    0.9139   51.7823    0.9745   51.7944    0.9735   51.7939    0.9096   51.8590    1.0156   51.8575    1.0171
  1.500   52.1120    0.9249   52.0916    0.9861   52.1038    0.9851   52.1035    0.9206   52.1692    1.0277   52.1677    1.0292
  1.510   52.4254    0.9361   52.4048    0.9980   52.4172    0.9969   52.4169    0.9318   52.4833    1.0401   52.4817    1.0416
  1.520   52.7428    0.9475   52.7220    1.0100   52.7344    1.0090   52.7343    0.9433   52.8014    1.0527   52.7998    1.0542
  1.530   53.0642    0.9591   53.0432    1.0223   53.0557    1.0213   53.0557    0.9549   53.1235    1.0655   53.1219    1.0670
  1.540   53.3898    0.9709   53.3685    1.0348   53.3812    1.0338   53.3813    0.9668   53.4497    1.0786   53.4482    1.0801
  1.550   53.7195    0.9830   53.6980    1.0476   53.7108    1.0465   53.7110    0.9789   53.7802    1.0920   53.7786    1.0935
  1.560   54.0535    0.9953   54.0318    1.0605   54.0447    1.0595   54.0450    0.9913   54.1149    1.1055   54.1133    1.1070
  1.570   54.3919    1.0078   54.3700    1.0738   54.3829    1.0728   54.3834    1.0038   54.4540    1.1194   54.4525    1.1209
  1.580   54.7347    1.0206   54.7126    1.0873   54.7257    1.0863   54.7263    1.0167   54.7976    1.1335   54.7960    1.1350
  1.590   55.0821    1.0337   55.0597    1.1010   55.0729    1.1000   55.0736    1.0298   55.1457    1.1479   55.1442    1.1494
  1.600   55.4341    1.0469   55.4115    1.1151   55.4248    1.1141   55.4257    1.0431   55.4985    1.1625   55.4970    1.1640
  1.610   55.7909    1.0605   55.7680    1.1294   55.7814    1.1284   55.7824    1.0567   55.8561    1.1775   55.8545    1.1790
  1.620   56.1524    1.0743   56.1293    1.1440   56.1428    1.1430   56.1440    1.0706   56.2184    1.1928   56.2169    1.1943
  1.630   56.5189    1.0884   56.4955    1.1589   56.5091    1.1578   56.5105    1.0848   56.5857    1.2083   56.5842    1.2098
  1.640   56.8904    1.1028   56.8667    1.1740   56.8805    1.1730   56.8820    1.0992   56.9581    1.2242   56.9565    1.2257
  1.650   57.2671    1.1175   57.2431    1.1895   57.2570    1.1885   57.2587    1.1140   57.3356    1.2404   57.3340    1.2419
  1.660   57.6490    1.1325   57.6247    1.2053   57.6388    1.2043   57.6406    1.1290   57.7184    1.2569   57.7168    1.2584
  1.670   58.0362    1.1478   58.0117    1.2215   58.0258    1.2204   58.0279    1.1444   58.1065    1.2738   58.1049    1.2753
  1.680   58.4289    1.1634   58.4041    1.2379   58.4184    1.2369   58.4206    1.1601   58.5001    1.2910   58.4986    1.2925
  1.690   58.8272    1.1793   58.8021    1.2547   58.8165    1.2537   58.8190    1.1761   58.8993    1.3086   58.8978    1.3101
  1.700   59.2312    1.1956   59.2058    1.2719   59.2204    1.2709   59.2230    1.1925   59.3043    1.3266   59.3027    1.3281
  1.710   59.6410    1.2122   59.6153    1.2894   59.6300    1.2884   59.6329    1.2092   59.7151    1.3449   59.7135    1.3464
  1.720   60.0568    1.2292   60.0308    1.3073   60.0457    1.3063   60.0487    1.2263   60.1319    1.3636   60.1303    1.3651
  1.730   60.4787    1.2465   60.4524    1.3256   60.4674    1.3246   60.4706    1.2437   60.5547    1.3828   60.5532    1.3842
  1.740   60.9069    1.2643   60.8802    1.3443   60.8953    1.3433   60.8988    1.2615   60.9839    1.4023   60.9824    1.4038
  1.750   61.3413    1.2824   61.3144    1.3634   61.3296    1.3624   61.3334    1.2798   61.4194    1.4223   61.4179    1.4238
  1.760   61.7824    1.3009   61.7550    1.3829   61.7704    1.3819   61.7744    1.2984   61.8615    1.4427   61.8600    1.4442
  1.770   62.2300    1.3198   62.2023    1.4028   62.2179    1.4018   62.2222    1.3174   62.3103    1.4636   62.3088    1.4650
  1.780   62.6845    1.3392   62.6565    1.4232   62.6722    1.4222   62.6767    1.3369   62.7659    1.4849   62.7644    1.4864
  1.790   63.1460    1.3590   63.1176    1.4441   63.1335    1.4431   63.1383    1.3569   63.2285    1.5068   63.2270    1.5082
  1.800   63.6146    1.3792   63.5858    1.4654   63.6019    1.4644   63.6069    1.3772   63.6983    1.5291   63.6968    1.5305
  1.810   64.0905    1.4000   64.0614    1.4872   64.0776    1.4862   64.0829    1.3981   64.1754    1.5519   64.1739    1.5533
  1.820   64.5739    1.4212   64.5444    1.5095   64.5608    1.5085   64.5664    1.4194   64.6600    1.5753   64.6585    1.5767
  1.830   65.0650    1.4429   65.0351    1.5323   65.0517    1.5314   65.0576    1.4413   65.1523    1.5992   65.1509    1.6006
  1.840   65.5640    1.4651   65.5337    1.5557   65.5504    1.5547   65.5566    1.4637   65.6525    1.6236   65.6511    1.6250
  1.850   66.0709    1.4878   66.0402    1.5796   66.0571    1.5787   66.0637    1.4866   66.1608    1.6487   66.1594    1.6501
  1.860   66.5862    1.5111   66.5550    1.6041   66.5721    1.6032   66.5790    1.5100   66.6774    1.6743   66.6759    1.6757
  1.870   67.1098    1.5349   67.0783    1.6292   67.0955    1.6283   67.1028    1.5340   67.2024    1.7006   67.2010    1.7020
  1.880   67.6422    1.5594   67.6102    1.6549   67.6276    1.6540   67.6353    1.5587   67.7361    1.7275   67.7347    1.7289
  1.890   68.1834    1.5844   68.1509    1.6812   68.1686    1.6803   68.1766    1.5839   68.2788    1.7551   68.2774    1.7564
  1.900   68.7337    1.6101   68.7008    1.7082   68.7186    1.7073   68.7271    1.6098   68.8306    1.7833   68.8292    1.7847
  1.910   69.2934    1.6364   69.2600    1.7358   69.2780    1.7349   69.2869    1.6363   69.3917    1.8123   69.3903    1.8136
  1.920   69.8627    1.6633   69.8288    1.7642   69.8470    1.7633   69.8563    1.6635   69.9625    1.8420   69.9611    1.8433
  1.930   70.4417    1.6910   70.4074    1.7932   70.4258    1.7923   70.4355    1.6913   70.5432    1.8724   70.5418    1.8737
  1.940   71.0309    1.7193   70.9961    1.8230   71.0147    1.8221   71.0249    1.7199   71.1339    1.9036   71.1326    1.9049
  1.950   71.6305    1.7484   71.5951    1.8536   71.6139    1.8527   71.6246    1.7493   71.7351    1.9357   71.7338    1.9369
  1.960   72.2407    1.7783   72.2048    1.8850   72.2238    1.8841   72.2350    1.7794   72.3470    1.9685   72.3457    1.9698
  1.970   72.8618    1.8090   72.8254    1.9172   72.8447    1.9163   72.8563    1.8104   72.9699    2.0023   72.9686    2.0035
  1.980   73.4942    1.8404   73.4572    1.9502   73.4767    1.9494   73.4889    1.8421   73.6040    2.0369   73.6028    2.0381
  1.990   74.1381    1.8728   74.1005    1.9841   74.1203    1.9833   74.1330    1.8748   74.2498    2.0725   74.2486    2.0736
  2.000   74.7939    1.9060   74.7557    2.0190   74.7757    2.0182   74.7890    1.9083   74.9074    2.1090   74.9062    2.1102
  2.010   75.4620    1.9401   75.4231    2.0548   75.4434    2.0540   75.4572    1.9427   75.5774    2.1465   75.5762    2.1477
  2.020   76.1425    1.9752   76.1031    2.0916   76.1236    2.0908   76.1380    1.9781   76.2599    2.1851   76.2587    2.1862
  2.030   76.8360    2.0112   76.7959    2.1294   76.8167    2.1286   76.8318    2.0145   76.9554    2.2248   76.9542    2.2258
  2.040   77.5428    2.0483   77.5020    2.1683   77.5231    2.1675   77.5388    2.0520   77.6642    2.2655   77.6631    2.2666
  2.050   78.2632    2.0864   78.2218    2.2083   78.2431    2.2075   78.2595    2.0905   78.3868    2.3075   78.3857    2.3085
  2.060   78.9978    2.1257   78.9557    2.2494   78.9772    2.2487   78.9944    2.1301   79.1235    2.3506   79.1225    2.3516
  2.070   79.7468    2.1660   79.7040    2.2917   79.7259    2.2910   79.7437    2.1709   79.8748    2.3950   79.8738    2.3959
  2.080   80.5108    2.2076   80.4673    2.3353   80.4894    2.3346   80.5081    2.2130   80.6411    2.4407   80.6401    2.4416
  2.090   81.2903    2.2504   81.2460    2.3802   81.2684    2.3795   81.2878    2.2562   81.4229    2.4877   81.4220    2.4886
  2.100   82.0856    2.2945   82.0405    2.4264   82.0632    2.4257   82.0835    2.3008   82.2206    2.5362   82.2198    2.5371
  2.110   82.8973    2.3399   82.8514    2.4740   82.8744    2.4733   82.8955    2.3468   83.0348    2.5861   83.0340    2.5870
  2.120   83.7259    2.3868   83.6792    2.5230   83.7025    2.5224   83.7245    2.3941   83.8660    2.6376   83.8652    2.6384
  2.130   84.5719    2.4351   84.5243    2.5736   84.5480    2.5730   84.5710    2.4430   84.7147    2.6906   84.7139    2.6914
  2.140   85.4359    2.4849   85.3875    2.6257   85.4115    2.6252   85.4354    2.4934   85.5815    2.7454   85.5807    2.7461
  2.150   86.3186    2.5363   86.2692    2.6795   86.2936    2.6790   86.3185    2.5454   86.4669    2.8018   86.4662    2.8025
  2.160   87.2204    2.5893   87.1702    2.7350   87.1949    2.7345   87.2208    2.5991   87.3716    2.8601   87.3710    2.8607
  2.170   88.1421    2.6441   88.0909    2.7924   88.1160    2.7919   88.1430    2.6545   88.2963    2.9202   88.2957    2.9208
  2.180   89.0843    2.7007   89.0321    2.8515   89.0576    2.8511   89.0857    2.7118   89.2416    2.9824   89.2411    2.9829
  2.190   90.0477    2.7592   89.9945    2.9127   90.0203    2.9122   90.0497    2.7710   90.2082    3.0466   90.2077    3.0470
  2.200   91.0331    2.8196   90.9788    2.9759   91.0051    2.9755   91.0357    2.8321   91.1968    3.1129   91.1964    3.1133
  2.210   92.0412    2.8821   91.9858    3.0412   92.0125    3.0408   92.0444    2.8954   92.2083    3.1815   92.2080    3.1819
  2.220   93.0728    2.9467   93.0163    3.1088   93.0434    3.1084   93.0766    2.9609   93.2434    3.2524   93.2432    3.2528
  2.230   94.1288    3.0136   94.0711    3.1787   94.0986    3.1784   94.1333    3.0287   94.3030    3.3259   94.3028    3.3261
  2.240   95.2100    3.0829   95.1512    3.2510   95.1791    3.2508   95.2153    3.0989   95.3879    3.4019   95.3878    3.4021
  2.250   96.3175    3.1546   96.2573    3.3260   96.2858    3.3258   96.3234    3.1716   96.4992    3.4806   96.4992    3.4807
  2.260   97.4520    3.2290   97.3906    3.4036   97.4195    3.4035   97.4588    3.2470   97.6377    3.5622   97.6378    3.5622
  2.270   98.6148    3.3060   98.5520    3.4841   98.5814    3.4840   98.6224    3.3251   98.8046    3.6467   98.8048    3.6467
  2.280   99.8068    3.3860   99.7426    3.5675   99.7725    3.5675   99.8152    3.4062  100.0008    3.7344  100.0011    3.7343
  2.290  101.0292    3.4689  100.9636    3.6541  100.9940    3.6541  101.0385    3.4903  101.2276    3.8254  101.2280    3.8252
  2.300  102.2831    3.5550  102.2160    3.7440  102.2470    3.7440  102.2934    3.5777  102.4861    3.9198  102.4866    3.9196
  2.310  103.5699    3.6445  103.5012    3.8373  103.5327    3.8374  103.5812    3.6684  103.7776    4.0179  103.7782    4.0176
  2.320  104.8908    3.7374  104.8205    3.9342  104.8526    3.9344  104.9032    3.7628  105.1034    4.1198  105.1041    4.1194
  2.330  106.2473    3.8341  106.1753    4.0350  106.2080    4.0353  106.2608    3.8609  106.4649    4.2258  106.4658    4.2253
  2.340  107.6407    3.9346  107.5670    4.1399  107.6003    4.1402  107.6555    3.9630  107.8637    4.3361  107.8647    4.3354
  2.350  109.0728    4.0393  108.9972    4.2489  109.0312    4.2494  109.0888    4.0693  109.3011    4.4508  109.3023    4.4500
  2.360  110.5450    4.1483  110.4675    4.3625  110.5021    4.3630  110.5623    4.1800  110.7790    4.5703  110.7803    4.5694
  2.370  112.0591    4.2619  111.9797    4.4809  112.0150    4.4815  112.0779    4.2954  112.2991    4.6948  112.3005    4.6938
  2.380  113.6171    4.3804  113.5356    4.6043  113.5716    4.6050  113.6373    4.4158  113.8631    4.8246  113.8648    4.8235
  2.390  115.2207    4.5040  115.1371    4.7330  115.1738    4.7338  115.2425    4.5414  115.4732    4.9601  115.4750    4.9588
  2.400  116.8722    4.6330  116.7863    4.8674  116.8238    4.8683  116.8956    4.6726  117.1312    5.1015  117.1332    5.1001
  2.410  118.5736    4.7679  118.4853    5.0077  118.5236    5.0087  118.5988    4.8097  118.8395    5.2492  118.8417    5.2476
  2.420  120.3273    4.9089  120.2366    5.1544  120.2757    5.1555  120.3543    4.9530  120.6004    5.4036  120.6028    5.4019
  2.430  122.1358    5.0563  122.0425    5.3078  122.0825    5.3091  122.1648    5.1031  122.4164    5.5652  122.4190    5.5633
  2.440  124.0017    5.2108  123.9057    5.4685  123.9466    5.4698  124.0328    5.2602  124.2901    5.7343  124.2930    5.7322
  2.450  125.9278    5.3726  125.8289    5.6367  125.8708    5.6382  125.9611    5.4248  126.2244    5.9115  126.2275    5.9092
  2.460  127.9171    5.5422  127.8153    5.8131  127.8582    5.8147  127.9527    5.5975  128.2222    6.0973  128.2256    6.0948
  2.470  129.9728    5.7203  129.8679    5.9981  129.9118    5.9999  130.0109    5.7788  130.2868    6.2922  130.2905    6.2896
  2.480  132.0983    5.9073  131.9901    6.1924  132.0352    6.1944  132.1391    5.9692  132.4217    6.4970  132.4257    6.4941
  2.490  134.2974    6.1039  134.1857    6.3966  134.2318    6.3988  134.3409    6.1694  134.6304    6.7122  134.6348    6.7091
  2.500  136.5737    6.3107  136.4584    6.6114  136.5058    6.6138  136.6203    6.3801  136.9170    6.9386  136.9217    6.9353
  2.510  138.9317    6.5285  138.8126    6.8375  138.8612    6.8401  138.9815    6.6021  139.2857    7.1770  139.2908    7.1734
  2.520  141.3758    6.7582  141.2526    7.0759  141.3025    7.0787  141.4289    6.8361  141.7410    7.4283  141.7464    7.4245
  2.530  143.9108    7.0004  143.7833    7.3273  143.8346    7.3303  143.9675    7.0831  144.2877    7.6935  144.2936    7.6893
  2.540  146.5419    7.2564  146.4099    7.5927  146.4626    7.5960  146.6025    7.3441  146.9313    7.9735  146.9376    7.9691
  2.550  149.2748    7.5270  149.1380    7.8734  149.1923    7.8770  149.3395    7.6201  149.6772    8.2696  149.6840    8.2649
  2.560  152.1156    7.8135  151.9737    8.1704  152.0295    8.1742  152.1847    7.9124  152.5316    8.5831  152.5390    8.5780
  2.570  155.0708    8.1171  154.9234    8.4850  154.9810    8.4892  155.1445    8.2222  155.5013    8.9152  155.5092    8.9098
  2.580  158.1475    8.4392  157.9944    8.8188  158.0538    8.8234  158.2263    8.5510  158.5932    9.2677  158.6018    9.2618
  2.590  161.3534    8.7815  161.1942    9.1733  161.2555    9.1783  161.4376    8.9004  161.8152    9.6421  161.8244    9.6358
  2.600  164.6970    9.1456  164.5312    9.5503  164.5946    9.5557  164.7870    9.2723  165.1758   10.0403  165.1857   10.0336
  2.610  168.1873    9.5334  168.0146    9.9519  168.0801    9.9577  168.2835    9.6685  168.6840   10.4646  168.6948   10.4574
  2.620  171.8344    9.9472  171.6541   10.3801  171.7219   10.3863  171.9372   10.0913  172.3501   10.9172  172.3616   10.9094
  2.630  175.6490   10.3893  175.4607   10.8374  175.5310   10.8442  175.7590   10.5432  176.1849   11.4007  176.1973   11.3924
  2.640  179.6431   10.8624  179.4462   11.3267  179.5191   11.3340  179.7608   11.0268  180.2004   11.9180  180.2138   11.9092
  2.650  183.8298   11.3694  183.6236   11.8509  183.6992   11.8589  183.9558   11.5454  184.4097   12.4726  184.4243   12.4631
  2.660  188.2233   11.9139  188.0072   12.4136  188.0858   12.4223  188.3584   12.1023  188.8275   13.0679  188.8432   13.0578
  2.670  192.8396   12.4995  192.6127   13.0186  192.6945   13.0280  192.9844   12.7016  193.4695   13.7083  193.4865   13.6975
  2.680  197.6961   13.1306  197.4575   13.6704  197.5428   13.6807  197.8514   13.3476  198.3535   14.3985  198.3718   14.3868
  2.690  202.8122   13.8122  202.5609   14.3741  202.6499   14.3853  202.9789   14.0454  203.4989   15.1437  203.5187   15.1313
  2.700  208.2093   14.5497  207.9443   15.1352  208.0372   15.1474  208.3885   14.8008  208.9274   15.9502  208.9489   15.9369
  2.710  213.9113   15.3497  213.6313   15.9605  213.7286   15.9738  214.1041   15.6204  214.6631   16.8249  214.6864   16.8106
  2.720  219.9451   16.2194  219.6487   16.8574  219.7507   16.8719  220.1526   16.5116  220.7329   17.7759  220.7583   17.7605
  2.730  226.3405   17.1672  226.0261   17.8345  226.1332   17.8505  226.5641   17.4834  227.1671   18.8124  227.1947   18.7959
  2.740  233.1311   18.2031  232.7970   18.9018  232.9096   18.9194  233.3724   18.5457  233.9995   19.9451  234.0296   19.9274
  2.750  240.3549   19.3382  239.9990   20.0711  240.1177   20.0904  240.6156   19.7103  241.2683   21.1865  241.3012   21.1674
  2.760  248.0548   20.5861  247.6747   21.3558  247.8002   21.3771  248.3367   20.9909  249.0168   22.5512  249.0528   22.5306
  2.770  256.2795   21.9622  255.8726   22.7720  256.0055   22.7955  256.5849   22.4037  257.2941   24.0562  257.3335   24.0340
  2.780  265.0847   23.4849  264.6479   24.3383  264.7889   24.3644  265.4159   23.9676  266.1563   25.7217  266.1996   25.6978
  2.790  274.5341   25.1762  274.0638   26.0772  274.2138   26.1062  274.8939   25.7053  275.6675   27.5717  275.7152   27.5459
  2.800  284.7010   27.0621  284.1930   28.0153  284.3531   28.0477  285.0926   27.6438  285.9017   29.6349  285.9543   29.6070
  2.810  295.6702   29.1740  295.1197   30.1846  295.2910   30.2208  296.0972   29.8156  296.9442   31.9456  297.0025   31.9154
  2.820  307.5406   31.5501  306.9417   32.6238  307.1256   32.6646  308.0069   32.2600  308.8945   34.5457  308.9592   34.5130
  2.830  320.4273   34.2367  319.7732   35.3803  319.9714   35.4263  320.9377   35.0251  321.8685   37.4860  321.9407   37.4506
  2.840  334.4662   37.2910  333.7487   38.5122  333.9630   38.5644  335.0261   38.1702  336.0029   40.8294  336.0836   40.7909
  2.850  349.8181   40.7840  349.0272   42.0916  349.2599   42.1513  350.4336   41.7687  351.4592   44.6537  351.5499   44.6119
  2.860  366.6747   44.8046  365.7983   46.2091  366.0521   46.2775  367.3529   45.9129  368.4299   49.0567  368.5323   49.0113
  2.870  385.2665   49.4657  384.2896   50.9791  384.5678   51.0582  386.0154   50.7200  387.1461   54.1625  387.2624   54.1130
  2.880  405.8724   54.9120  404.7765   56.5484  405.0831   56.6406  406.7016   56.3400  407.8875   60.1300  408.0202   60.0761
  2.890  428.8335   61.3316  427.5954   63.1077  427.9351   63.2160  429.7538   62.9683  430.9951   67.1661  431.1474   67.1075
  2.900  454.5705   68.9723  453.1604   70.9077  453.5393   71.0362  455.5940   70.8625  456.8886   75.5435  457.0648   75.4797
  2.910  483.6074   78.1661  481.9869   80.2840  482.4127   80.4381  484.7478   80.3676  486.0895   85.6272  486.2950   85.5582
  2.920  516.6041   89.3655  514.7230   91.6934  515.2050   91.8805  517.8760   91.9543  519.2520   97.9151  519.4939   97.8408
  2.930  554.4006  103.1995  552.1918  105.7700  552.7423  106.0004  555.8190  106.2774  557.2050  113.0994  557.4927  113.0202
  2.940  598.0792  120.5626  595.4514  123.4135  596.0861  123.7019  599.6565  124.2683  601.0088  132.1638  601.3550  132.0809
  2.950  649.0488  142.7588  645.8753  145.9331  646.6146  146.3012  650.7902  147.2856  652.0305  156.5414  652.4528  156.4577
  2.960  709.1610  171.7447  705.2614  175.2885  706.1323  175.7688  711.0530  177.3680  712.0411  188.3798  712.5644  188.3012
  2.970  780.8610  210.5531  775.9721  214.5082  777.0100  215.1516  782.8462  217.6752  783.3272  230.9995  783.9875  230.9380
  2.980  867.3560  264.0615  861.0832  268.4463  862.3338  269.3352  869.2774  273.2849  868.7745  289.7179  869.6251  289.6977
  2.990  972.7073  340.4442  964.4424  345.2035  965.9612  346.4778  974.1771  352.6896  971.7654  373.3802  972.8864  373.4517
  3.000 1101.4541  454.0208 1090.2402  458.8966 1092.0803  460.8037 1101.5367  470.7009 1095.3412  497.2745 1096.8534  497.5469
  3.010 1256.3255  630.9495 1240.6537  635.1434 1242.8111  638.1391 1252.7433  654.1260 1238.7871  688.6276 1240.8612  689.3481
  3.020 1428.7662  920.0569 1406.4034  921.3418 1408.6028  926.2719 1415.9521  951.9989 1385.5828  995.6618 1388.3864  997.4113
  3.030 1564.1585 1406.8702 1532.7718 1399.3616 1533.7075 1407.6061 1529.5089 1446.0778 1465.2083 1492.6329 1468.4821 1496.7247
  3.040 1458.1491 2182.4131 1420.7421 2152.4748 1416.0861 2164.6524 1383.7123 2207.6453 1265.4910 2220.3047 1266.7052 2228.6580
  3.050  663.7202 3029.3672  649.5420 2963.8629  633.0590 2972.4545  570.0795 2988.9851  446.0518 2893.9948  438.7979 2903.5559
  3.060 -727.0084 3020.1542 -683.5098 2966.2815 -701.1511 2958.6274 -759.4779 2929.5666 -763.9392 2782.7571 -775.9446 2782.5007
  3.070 ********* 2134.3495 ********* 2129.6836 ********* 2116.7660 ********* 2069.3199 ********* 1992.9447 ********* 1986.7951
  3.080 ********* 1343.2066 ********* 1355.3363 ********* 1346.3753 ********* 1309.7507 ********* 1286.3858 ********* 1281.1601
  3.090 *********  865.8047 *********  876.3835 *********  871.0052 *********  847.6406 *********  843.8703 *********  840.4511
  3.100 *********  594.4303 *********  599.7020 *********  596.3028 *********  581.0786 *********  582.9639 *********  580.9003
  3.110 *********  433.8273 *********  435.7868 *********  432.9772 *********  421.2765 *********  425.0040 *********  423.8897
  3.120 -976.5376  294.3040 -968.1760  303.4506 -965.7797  301.2344 -954.0563  294.4351 -941.3958  300.7036 -940.8734  299.8194
  3.130 -849.5379  213.0719 -846.9888  221.1437 -844.9873  220.0474 -835.8014  217.2925 -827.7477  222.3989 -827.3287  221.7114
  3.140 -752.8279  165.6035 -752.2198  171.4606 -750.6536  170.7535 -743.5702  169.4617 -737.9159  173.4975 -737.5374  172.9337
  3.150 -676.1371  132.1565 -676.2564  136.4857 -674.9728  135.9737 -669.3086  135.4146 -665.1872  138.6522 -664.8390  138.1956
  3.160 -613.0545  107.3260 -613.4846  110.6096 -612.3980  110.2177 -607.7619  110.0884 -604.6943  112.7058 -604.3765  112.3353
  3.170 -560.0404   88.3768 -560.6081   90.9188 -559.6660   90.6073 -555.8120   90.7444 -553.4971   92.8693 -553.2084   92.5663
  3.180 -514.7940   73.6043 -515.4187   75.6032 -514.5860   75.3480 -511.3461   75.6530 -509.5836   77.3817 -509.3215   77.1316
  3.190 -475.6896   61.8763 -476.3316   63.4669 -475.5832   63.2525 -472.8370   63.6623 -471.4884   65.0690 -471.2502   64.8608
  3.200 -441.5262   52.4147 -442.1657   53.6919 -441.4830   53.5076 -439.1411   53.9807 -438.1083   55.1234 -437.8910   54.9489
  3.210 -411.3911   44.6712 -412.0189   45.7037 -411.3875   45.5421 -409.3820   46.0501 -408.5935   46.9747 -408.3948   46.8276
  3.220 -384.5756   38.2511 -385.1881   39.0898 -384.5964   38.9455 -382.8752   39.4688 -382.2779   40.2120 -382.0955   40.0875
  3.230 -360.5194   32.8650 -361.1163   33.5485 -360.5549   33.4174 -359.0770   33.9418 -358.6308   34.5332 -358.4628   34.4277
  3.240 -338.7723   28.2965 -339.3551   28.8547 -338.8159   28.7340 -337.5491   29.2491 -337.2230   29.7128 -337.0680   29.6234
  3.250 -318.9663   24.3823 -319.5377   24.8385 -319.0136   24.7258 -317.9323   25.2237 -317.7021   25.5798 -317.5586   25.5042
  3.260 -300.7956   20.9968 -301.3594   21.3698 -300.8436   21.2634 -299.9275   21.7376 -299.7737   22.0027 -299.6407   21.9391
  3.270 -284.0012   18.0428 -284.5618   18.3478 -284.0480   18.2463 -283.2808   18.6912 -283.1874   18.8798 -283.0642   18.8268
  3.280 -268.3590   15.4444 -268.9216   15.6941 -268.4031   15.5966 -267.7721   16.0071 -267.7256   16.1316 -267.6116   16.0880
  3.290 -253.6695   13.1427 -254.2404   13.3477 -253.7102   13.2536 -253.2052   13.6244 -253.1940   13.6963 -253.0889   13.6612
  3.300 -239.7494   11.0921 -240.3359   11.2618 -239.7861   11.1708 -239.3996   11.4963 -239.4127   11.5265 -239.3168   11.4989
  3.310 -226.4229    9.2590 -227.0344    9.4017 -226.4557    9.3140 -226.1816    9.5876 -226.2086    9.5875 -226.1224    9.5664
  3.320 -213.5127    7.6205 -214.1614    7.7439 -213.5419    7.6602 -213.3761    7.8742 -213.4059    7.8568 -213.3309    7.8409
  3.330 -200.8281    6.1626 -201.5303    6.2743 -200.8546    6.1962 -200.7941    6.3419 -200.8146    6.3245 -200.7531    6.3106
  3.340 -188.1366    4.8779 -188.9163    4.9848 -188.1622    4.9160 -188.2070    4.9850 -188.2074    4.9941 -188.1605    4.9746
  3.350 -175.0965    3.8175 -175.9898    3.9214 -175.1246    3.8741 -175.2871    3.8509 -175.2692    3.9195 -175.2263    3.8869
  3.360 -161.3652    3.2044 -162.4165    3.3003 -161.4044    3.2984 -161.6908    3.1390 -161.6474    3.2892 -161.6035    3.2569
  3.370 -146.5374    3.2076 -147.8163    3.2896 -146.6036    3.3637 -146.9976    3.0222 -146.8976    3.3173 -146.8698    3.2859
  3.380 -129.8250    4.2313 -131.4514    4.2714 -129.9488    4.4862 -130.4287    3.9082 -130.2552    4.4781 -130.2575    4.4302
  3.390 -110.0518    7.2843 -112.2283    7.1899 -110.2990    7.6918 -110.8174    6.7975 -110.5951    7.8842 -110.6386    7.7844
  3.400  -85.5002   14.7323  -88.5644   14.2257  -86.0201   15.3619  -86.4596   14.0486  -86.3758   16.1250  -86.4570   15.8942
  3.410  -54.3055   32.5110  -58.7158   30.7559  -55.4498   33.3934  -55.5432   31.5906  -56.4513   35.5229  -56.4668   34.9882
  3.420  -19.3701   75.3472  -24.9102   70.0486  -21.9177   76.1385  -21.1930   74.0262  -26.3786   80.3069  -25.7565   79.3222
  3.430  -13.8644  164.3904  -15.6309  152.6326  -18.6559  162.8627  -16.6144  161.3756  -31.7437  162.5478  -29.5862  162.5937
  3.440 -109.4921  241.2287  -99.6933  231.6632 -111.2197  234.1999 -110.0549  235.2279 -119.4779  219.5397 -119.0412  221.5906
  3.450 -210.1849  198.0506 -200.6526  199.1493 -206.3432  194.0002 -207.3836  193.2985 -202.6309  181.4547 -203.2575  182.2714
  3.460 -232.6610  133.4743 -228.3903  136.7888 -229.4424  132.7800 -229.3924  130.7734 -223.3607  126.0778 -223.8016  126.4483
  3.470 -225.8198   93.5282 -224.0457   96.0123 -223.8770   93.7052 -222.9786   91.8255 -218.4655   90.0327 -218.8326   90.2878
  3.480 -213.7938   70.5477 -212.9629   72.0653 -212.5929   70.7978 -211.3890   69.2058 -208.0702   68.4613 -208.4579   68.6577
  3.490 -202.3334   56.8494 -201.3784   58.9049 -201.5075   56.9841 -200.2145   55.5286 -197.6643   55.2916 -198.0698   55.3329
  3.500 -192.7592   48.5317 -192.3272   49.3147 -192.0874   48.5136 -190.7078   46.9975 -188.6867   46.9635 -189.0464   46.9200
  3.510 -186.0035   43.4207 -185.4723   43.9115 -185.2964   43.2636 -183.5865   41.5105 -181.8319   41.6265 -182.1844   41.4795
  3.520 -183.1112   37.9310 -182.4000   38.4916 -182.1564   37.8424 -179.5277   36.1231 -177.9956   36.5707 -178.2330   36.2390
  3.530 -178.6055   28.1569 -178.1092   28.9698 -177.6827   28.5079 -174.3915   27.9228 -173.4172   28.5867 -173.3818   28.2917
  3.540 -169.4051   21.2235 -169.2136   21.9447 -168.8370   21.7104 -166.0118   22.0905 -165.4322   22.5835 -165.3484   22.4532
  3.550 -160.9771   18.0719 -160.9156   18.6321 -160.6288   18.4910 -158.3769   19.1763 -157.9573   19.5123 -157.9039   19.4505
  3.560 -154.1101   16.2652 -154.1019   16.7012 -153.8759   16.6013 -152.0133   17.3466 -151.6802   17.5876 -151.6502   17.5505
  3.570 -148.2911   14.9432 -148.3077   15.2879 -148.1220   15.2113 -146.5181   15.9495 -146.2457   16.1295 -146.2295   16.1028
  3.580 -143.1643   13.8606 -143.1935   14.1365 -143.0360   14.0755 -141.6141   14.7895 -141.3890   14.9270 -141.3809   14.9055
  3.590 -138.5302   12.9328 -138.5661   13.1556 -138.4295   13.1058 -137.1430   13.7929 -136.9564   13.8989 -136.9533   13.8804
  3.600 -134.2711   12.1216 -134.3106   12.3025 -134.1901   12.2611 -133.0091   12.9226 -132.8545   13.0042 -132.8545   12.9876
  3.610 -130.3116   11.4049 -130.3532   11.5521 -130.2453   11.5172 -129.1495   12.1553 -129.0218   12.2175 -129.0238   12.2024
  3.620 -126.5998   10.7675 -126.6426   10.8872 -126.5448   10.8575 -125.5198   11.4743 -125.4149   11.5209 -125.4181   11.5070
  3.630 -123.0980   10.1980 -123.1414   10.2951 -123.0519   10.2695 -122.0870   10.8669 -122.0013   10.9009 -122.0055   10.8880
  3.640 -119.7773    9.6875 -119.8211    9.7658 -119.7383    9.7435 -118.8252   10.3231 -118.7561   10.3471 -118.7609   10.3350
  3.650 -116.6147    9.2286 -116.6587    9.2914 -116.5817    9.2717 -115.7140    9.8348 -115.6589    9.8508 -115.6641    9.8394
  3.660 -113.5918    8.8156 -113.6359    8.8653 -113.5636    8.8477 -112.7361    9.3956 -112.6931    9.4053 -112.6986    9.3947
  3.670 -110.6928    8.4435 -110.7372    8.4824 -110.6689    8.4665 -109.8773    9.0000 -109.8445    9.0050 -109.8503    8.9951
  3.680 -107.9047    8.1085 -107.9494    8.1383 -107.8846    8.1239 -107.1253    8.6436 -107.1012    8.6454 -107.1071    8.6361
  3.690 -105.2161    7.8072 -105.2611    7.8295 -105.1993    7.8163 -104.4693    8.3230 -104.4525    8.3228 -104.4587    8.3142
  3.700 -102.6170    7.5370 -102.6625    7.5533 -102.6032    7.5409 -101.8999    8.0351 -101.8893    8.0343 -101.8956    8.0262
  3.710 -100.0986    7.2959 -100.1446    7.3074 -100.0875    7.2957  -99.4088    7.7778  -99.4032    7.7773  -99.4098    7.7698
  3.720  -97.6529    7.0822  -97.6996    7.0900  -97.6444    7.0788  -96.9882    7.5491  -96.9869    7.5502  -96.9936    7.5433
  3.730  -95.2727    6.8948  -95.3203    6.8998  -95.2667    6.8889  -94.6314    7.3477  -94.6333    7.3515  -94.6402    7.3451
  3.740  -92.9514    6.7328  -93.0000    6.7360  -92.9479    6.7254  -92.3319    7.1728  -92.3363    7.1803  -92.3435    7.1744
  3.750  -90.6829    6.5959  -90.7327    6.5982  -90.6818    6.5876  -90.0839    7.0238  -90.0900    7.0362  -90.0974    7.0308
  3.760  -88.4614    6.4840  -88.5126    6.4863  -88.4628    6.4756  -87.8817    6.9007  -87.8889    6.9191  -87.8966    6.9141
  3.770  -86.2815    6.3977  -86.3343    6.4007  -86.2855    6.3899  -85.7202    6.8038  -85.7278    6.8293  -85.7358    6.8248
  3.780  -84.1382    6.3378  -84.1928    6.3424  -84.1448    6.3312  -83.5943    6.7339  -83.6019    6.7678  -83.6101    6.7637
  3.790  -82.0264    6.3056  -82.0831    6.3125  -82.0359    6.3010  -81.4993    6.6924  -81.5063    6.7359  -81.5149    6.7322
  3.800  -79.9416    6.3032  -80.0007    6.3132  -79.9542    6.3011  -79.4307    6.6811  -79.4365    6.7356  -79.4456    6.7322
  3.810  -77.8792    6.3329  -77.9411    6.3469  -77.8952    6.3341  -77.3841    6.7025  -77.3884    6.7694  -77.3979    6.7664
  3.820  -75.8351    6.3982  -75.9001    6.4170  -75.8547    6.4033  -75.3555    6.7599  -75.3578    6.8407  -75.3677    6.8380
  3.830  -73.8052    6.5031  -73.8738    6.5275  -73.8288    6.5128  -73.3409    6.8573  -73.3410    6.9539  -73.3514    6.9514
  3.840  -71.7859    6.6529  -71.8586    6.6839  -71.8140    6.6679  -71.3368    6.9999  -71.3344    7.1140  -71.3454    7.1118
  3.850  -69.7742    6.8539  -69.8515    6.8924  -69.8074    6.8750  -69.3404    7.1940  -69.3354    7.3278  -69.3469    7.3257
  3.860  -67.7676    7.1140  -67.8503    7.1610  -67.8065    7.1420  -67.3495    7.4475  -67.3417    7.6032  -67.3539    7.6012
  3.870  -65.7649    7.4427  -65.8538    7.4992  -65.8103    7.4784  -65.3629    7.7698  -65.3527    7.9499  -65.3655    7.9479
  3.880  -63.7665    7.8515  -63.8626    7.9187  -63.8194    7.8956  -63.3813    8.1723  -63.3689    8.3795  -63.3825    8.3775
  3.890  -61.7752    8.3540  -61.8795    8.4330  -61.8367    8.4074  -61.4077    8.6684  -61.3939    8.9058  -61.4082    8.9036
  3.900  -59.7972    8.9659  -59.9111    9.0580  -59.8686    9.0294  -59.4486    9.2739  -59.4344    9.5447  -59.4496    9.5422
  3.910  -57.8435    9.7053  -57.9686    9.8116  -57.9264    9.7796  -57.5154   10.0061  -57.5025   10.3141  -57.5184   10.3110
  3.920  -55.9320   10.5911  -56.0703   10.7130  -56.0284   10.6768  -55.6261   10.8841  -55.6169   11.2328  -55.6336   11.2290
  3.930  -54.0896   11.6423  -54.2432   11.7809  -54.2016   11.7397  -53.8082   11.9259  -53.8058   12.3191  -53.8231   12.3145
  3.940  -52.3546   12.8742  -52.5261   13.0306  -52.4846   12.9834  -52.0999   13.1465  -52.1085   13.5876  -52.1265   13.5818
  3.950  -50.7785   14.2938  -50.9707   14.4689  -50.9292   14.4144  -50.5530   14.5517  -50.5779   15.0437  -50.5962   15.0365
  3.960  -49.4256   15.8919  -49.6421   16.0864  -49.6000   16.0228  -49.2317   16.1313  -49.2791   16.6758  -49.2974   16.6670
  3.970  -48.3695   17.6338  -48.6139   17.8479  -48.5700   17.7731  -48.2086   17.8494  -48.2854   18.4464  -48.3033   18.4358
  3.980  -47.6810   19.4495  -47.9575   19.6833  -47.9099   19.5947  -47.5536   19.6352  -47.6665   20.2823  -47.6835   20.2700
  3.990  -47.4107   21.2304  -47.7237   21.4830  -47.6691   21.3785  -47.3156   21.3794  -47.4700   22.0721  -47.4855   22.0583
  4.000  -47.5646   22.8364  -47.9189   23.1064  -47.8525   22.9843  -47.4988   22.9422  -47.6972   23.6741  -47.7108   23.6592
  4.010  -48.0854   24.1199  -48.4856   24.4050  -48.4016   24.2654  -48.0444   24.1772  -48.2859   24.9419  -48.2973   24.9264
  4.020  -48.8500   24.9620  -49.3006   25.2587  -49.1928   25.1040  -48.8287   24.9672  -49.1088   25.7598  -49.1180   25.7443
  4.030  -49.6917   25.3055  -50.1961   25.6099  -50.0593   25.4447  -49.6852   25.2566  -49.9967   26.0756  -50.0039   26.0607
  4.040  -50.4383   25.1692  -50.9990   25.4768  -50.8299   25.3074  -50.4431   25.0652  -50.7780   25.9131  -50.7835   25.8993
  4.050  -50.9504   24.6349  -51.5688   24.9421  -51.3666   24.7751  -50.9642   24.4750  -51.3155   25.3585  -51.3197   25.3460
  4.060  -51.1419   23.8192  -51.8193   24.1230  -51.5852   23.9644  -51.1639   23.6017  -51.5265   24.5307  -51.5297   24.5195
  4.070  -50.9805   22.8421  -51.7185   23.1406  -51.4550   22.9949  -51.0106   22.5644  -51.3820   23.5509  -51.3847   23.5410
  4.080  -50.4741   21.8069  -51.2754   22.0987  -50.9858   21.9691  -50.5128   21.4646  -50.8931   22.5222  -50.8956   22.5135
  4.090  -49.6541   20.7915  -50.5229   21.0751  -50.2099   20.9632  -49.7014   20.3785  -50.0937   21.5219  -50.0960   21.5142
  4.100  -48.5604   19.8489  -49.5028   20.1217  -49.1689   20.0284  -48.6161   19.3571  -49.0259   20.6017  -49.0283   20.5949
  4.110  -47.2328   19.0121  -48.2563   19.2693  -47.9034   19.1947  -47.2954   18.4311  -47.7315   19.7929  -47.7341   19.7868
  4.120  -45.7060   18.2998  -46.8193   18.5332  -46.4485   18.4772  -45.7720   17.6168  -46.2466   19.1121  -46.2494   19.1065
  4.130  -44.0081   17.7217  -45.2193   17.9179  -44.8313   17.8803  -44.0706   16.9214  -44.6001   18.5658  -44.6034   18.5606
  4.140  -42.1608   17.2823  -43.4751   17.4207  -43.0700   17.4011  -42.2074   16.3467  -42.8137   18.1540  -42.8177   18.1488
  4.150  -40.1817   16.9821  -41.5958   17.0338  -41.1732   17.0318  -40.1911   15.8925  -40.9021   17.8714  -40.9069   17.8658
  4.160  -38.0859   16.8168  -39.5785   16.7457  -39.1376   16.7607  -38.0227   15.5581  -38.8725   17.7069  -38.8786   17.7002
  4.170  -35.8867   16.7707  -37.4043   16.5442  -36.9435   16.5750  -35.6966   15.3439  -36.7220   17.6411  -36.7296   17.6315
  4.180  -33.5862   16.8033  -35.0322   16.4233  -34.5484   16.4678  -33.2004   15.2528  -34.4265   17.6411  -34.4346   17.6258
  4.190  -31.1344   16.8409  -32.3962   16.3986  -31.8834   16.4543  -30.5142   15.2903  -31.9113   17.6667  -31.9163   17.6423
  4.200  -28.3651   16.8412  -29.4169   16.5300  -28.8642   16.5958  -27.6102   15.4670  -29.0155   17.7274  -29.0095   17.6937
  4.210  -25.0641   16.9471  -26.0356   16.9295  -25.4275   17.0102  -24.4515   15.8000  -25.5580   17.9967  -25.5332   17.9604
  4.220  -21.2048   17.4266  -22.2411   17.7350  -21.5658   17.8415  -20.9908   16.3151  -21.5291   18.7605  -21.4848   18.7328
  4.230  -16.8984   18.4118  -18.0734   19.0773  -17.3130   19.2182  -17.1679   17.0487  -17.0653   20.1944  -17.0081   20.1835
  4.240  -12.1713   19.9226  -13.5853   21.0382  -12.7186   21.2398  -12.9043   18.0525  -12.2536   22.3562  -12.1914   22.3638
  4.250   -6.9404   22.0138   -8.7740   23.6907   -7.7892   23.9832   -8.0964   19.4017   -7.0806   25.3180   -7.0186   25.3424
  4.260   -1.0647   24.8326   -3.5936   27.1711   -2.4753   27.5894   -2.6071   21.2077   -1.4784   29.2472   -1.4190   29.2863
  4.270    5.6293   28.6459    2.0052   31.7163    3.2763   32.3103    3.7472   23.6395    4.6247   34.4492    4.6805   34.5019
  4.280   13.3368   33.8923    8.0313   37.6945    9.4741   38.5388   11.2153   26.9603   11.2514   41.4146   11.3031   41.4810
  4.290   22.2469   41.2858   14.3861   45.6415   16.0117   46.8501   20.1373   31.5963   18.2862   50.8946   18.3327   50.9763
  4.300   32.4415   52.0052   20.7435   56.2926   22.5339   58.0402   30.9756   38.2691   25.2821   64.0047   25.3209   64.1044
  4.310   43.5819   68.0019   26.3413   70.5577   28.2003   73.1066   44.3337   48.2658   31.0352   82.3036   31.0613   82.4242
  4.320   54.0168   92.3432   29.7041   89.3228   31.3466   93.0341   60.8724   64.0204   32.6944  107.5879   32.6999  107.7314
  4.330   58.6382  128.7905   28.5264  112.9798   29.2659  118.2301   80.7170   90.4024   24.2727  140.4624   24.2485  140.6294
  4.340   46.0586  177.6597   20.0516  141.2392   18.5179  148.0235  100.5440  137.3155   -3.6942  175.4056   -3.7661  175.6072
  4.350    2.9594  226.8188   -0.1974  174.5784   -5.9705  181.3987  101.2065  220.9724  -54.7722  193.9656  -54.9723  194.1824
  4.360  -73.6030  252.8126  -47.5506  207.7478  -57.7144  210.1359   20.3327  330.1851 -108.6006  179.0525 -108.9272  179.1075
  4.370 -161.3632  220.2868 -122.6814  198.4387 -131.0058  193.8379 -153.5065  331.7648 -140.2556  143.2112 -140.4919  143.0843
  4.380 -196.3085  147.5827 -162.1861  144.2710 -165.1528  138.2489 -238.8668  213.8882 -149.8753  107.8584 -149.9717  107.7129
  4.390 -189.2155   93.6532 -163.8833   98.8885 -164.1054   94.5005 -232.5600  122.4837 -147.9232   80.7314 -147.9534   80.6328
  4.400 -172.6123   62.3480 -154.5677   70.4717 -153.9282   67.6120 -206.3135   73.6167 -141.5150   61.3921 -141.5267   61.3334
  4.410 -156.7960   44.0001 -143.9179   52.5861 -143.1107   50.7245 -182.0020   47.6613 -133.9405   47.7471 -133.9501   47.7128
  4.420 -143.5172   32.6282 -134.1748   40.7518 -133.4167   39.5088 -162.5898   32.9521 -126.5148   38.0029 -126.5264   37.9828
  4.430 -132.6165   25.1826 -125.6975   32.5512 -125.0435   31.6958 -147.3823   24.0294 -119.6954   30.9071 -119.7096   30.8957
  4.440 -123.6324   20.0756 -118.3995   26.6506 -117.8521   26.0446 -135.3382   18.2911 -113.5896   25.6291 -113.6061   25.6232
  4.450 -116.1427   16.4354 -112.1056   22.2727 -111.6522   21.8318 -125.6253   14.4184 -108.1702   21.6213 -108.1886   21.6191
  4.460 -109.8157   13.7565 -106.6441   18.9405 -106.2693   18.6121 -117.6448   11.6988 -103.3649   18.5191 -103.3849   18.5196
  4.470 -104.4013   11.7314 -101.8685   16.3489 -101.5580   16.0990 -110.9725    9.7251  -99.0925   16.0755  -99.1137   16.0780
  4.480  -99.7118   10.1654  -97.6592   14.2954  -97.4010   14.1015 -105.3064    8.2524  -95.2767   14.1201  -95.2989   14.1242
  4.490  -95.6054    8.9304  -93.9198   12.6417  -93.7042   12.4886 -100.4278    7.1275  -91.8506   12.5329  -91.8736   12.5384
  4.500  -91.9738    7.9399  -90.5732   11.2909  -90.3923   11.1679  -96.1757    6.2506  -88.7572   11.2280  -88.7809   11.2347
  4.510  -88.7335    7.1336  -87.5571   10.1735  -87.4047   10.0733  -92.4294    5.5551  -85.9487   10.1428  -85.9731   10.1506
  4.520  -85.8190    6.4686  -84.8215    9.2388  -84.6925    9.1559  -89.0971    4.9948  -83.3853    9.2309  -83.4103    9.2397
  4.530  -83.1785    5.9139  -82.3254    8.4491  -82.2156    8.3794  -86.1077    4.5373  -81.0335    8.4574  -81.0591    8.4671
  4.540  -80.7706    5.4462  -80.0352    7.7757  -79.9414    7.7164  -83.4052    4.1594  -78.8656    7.7956  -78.8918    7.8062
  4.550  -78.5617    5.0484  -77.9233    7.1969  -77.8428    7.1458  -80.9454    3.8438  -76.8581    7.2251  -76.8849    7.2366
  4.560  -76.5245    4.7071  -75.9666    6.6958  -75.8972    6.6510  -78.6925    3.5777  -74.9914    6.7298  -75.0188    6.7421
  4.570  -74.6362    4.4123  -74.1460    6.2589  -74.0857    6.2193  -76.6177    3.3515  -73.2486    6.2970  -73.2766    6.3101
  4.580  -72.8782    4.1558  -72.4450    5.8757  -72.3925    5.8402  -74.6970    3.1576  -71.6157    5.9166  -71.6443    5.9306
  4.590  -71.2347    3.9313  -70.8500    5.5379  -70.8039    5.5056  -72.9107    2.9905  -70.0803    5.5805  -70.1096    5.5953
  4.600  -69.6923    3.7337  -69.3492    5.2384  -69.3085    5.2088  -71.2424    2.8454  -68.6321    5.2821  -68.6621    5.2977
  4.610  -68.2397    3.5591  -67.9325    4.9718  -67.8963    4.9443  -69.6781    2.7188  -67.2620    5.0160  -67.2927    5.0324
  4.620  -66.8673    3.4040  -66.5912    4.7335  -66.5586    4.7076  -68.2060    2.6078  -65.9622    4.7777  -65.9936    4.7950
  4.630  -65.5667    3.2657  -65.3177    4.5196  -65.2882    4.4951  -66.8162    2.5101  -64.7258    4.5636  -64.7579    4.5817
  4.640  -64.3307    3.1420  -64.1055    4.3270  -64.0784    4.3036  -65.4999    2.4238  -63.5469    4.3705  -63.5798    4.3895
  4.650  -63.1530    3.0311  -62.9487    4.1531  -62.9237    4.1305  -64.2496    2.3473  -62.4201    4.1959  -62.4538    4.2158
  4.660  -62.0280    2.9313  -61.8424    3.9956  -61.8189    3.9736  -63.0590    2.2794  -61.3407    4.0377  -61.3753    4.0584
  4.670  -60.9511    2.8414  -60.7820    3.8526  -60.7596    3.8311  -61.9222    2.2190  -60.3048    3.8938  -60.3402    3.9155
  4.680  -59.9178    2.7603  -59.7635    3.7226  -59.7419    3.7014  -60.8344    2.1652  -59.3085    3.7628  -59.3448    3.7854
  4.690  -58.9244    2.6869  -58.7835    3.6041  -58.7624    3.5831  -59.7911    2.1173  -58.3485    3.6434  -58.3858    3.6669
  4.700  -57.9676    2.6206  -57.8386    3.4960  -57.8177    3.4751  -58.7884    2.0745  -57.4220    3.5342  -57.4603    3.5587
  4.710  -57.0442    2.5606  -56.9262    3.3973  -56.9053    3.3764  -57.8228    2.0365  -56.5263    3.4344  -56.5656    3.4599
  4.720  -56.1517    2.5064  -56.0435    3.3070  -56.0224    3.2861  -56.8913    2.0028  -55.6589    3.3430  -55.6994    3.3695
  4.730  -55.2875    2.4573  -55.1884    3.2245  -55.1668    3.2034  -55.9910    1.9730  -54.8177    3.2594  -54.8593    3.2869
  4.740  -54.4494    2.4132  -54.3586    3.1490  -54.3364    3.1277  -55.1195    1.9467  -54.0007    3.1828  -54.0435    3.2114
  4.750  -53.6354    2.3734  -53.5524    3.0800  -53.5293    3.0585  -54.2745    1.9237  -53.2061    3.1127  -53.2502    3.1424
  4.760  -52.8438    2.3378  -52.7678    3.0169  -52.7438    2.9951  -53.4539    1.9037  -52.4323    3.0486  -52.4776    3.0795
  4.770  -52.0727    2.3060  -52.0034    2.9594  -51.9782    2.9373  -52.6558    1.8867  -51.6776    2.9900  -51.7243    3.0221
  4.780  -51.3208    2.2778  -51.2576    2.9071  -51.2311    2.8846  -51.8786    1.8723  -50.9408    2.9366  -50.9889    2.9699
  4.790  -50.5865    2.2531  -50.5291    2.8596  -50.5011    2.8367  -51.1206    1.8605  -50.2204    2.8880  -50.2700    2.9226
  4.800  -49.8685    2.2315  -49.8166    2.8167  -49.7870    2.7933  -50.3805    1.8511  -49.5154    2.8439  -49.5666    2.8799
  4.810  -49.1657    2.2131  -49.1189    2.7780  -49.0876    2.7541  -49.6567    1.8441  -48.8245    2.8042  -48.8773    2.8415
  4.820  -48.4769    2.1976  -48.4350    2.7435  -48.4018    2.7190  -48.9482    1.8394  -48.1468    2.7685  -48.2013    2.8073
  4.830  -47.8011    2.1850  -47.7639    2.7128  -47.7285    2.6877  -48.2538    1.8370  -47.4811    2.7367  -47.5375    2.7770
  4.840  -47.1371    2.1752  -47.1044    2.6858  -47.0669    2.6602  -47.5723    1.8367  -46.8267    2.7087  -46.8849    2.7505
  4.850  -46.4843    2.1682  -46.4559    2.6625  -46.4160    2.6362  -46.9027    1.8385  -46.1826    2.6843  -46.2428    2.7277
  4.860  -45.8415    2.1638  -45.8173    2.6427  -45.7749    2.6157  -46.2442    1.8426  -45.5480    2.6633  -45.6103    2.7084
  4.870  -45.2080    2.1621  -45.1879    2.6263  -45.1428    2.5986  -45.5957    1.8487  -44.9221    2.6458  -44.9865    2.6926
  4.880  -44.5830    2.1630  -44.5669    2.6132  -44.5190    2.5848  -44.9565    1.8571  -44.3041    2.6316  -44.3709    2.6803
  4.890  -43.9658    2.1667  -43.9535    2.6035  -43.9026    2.5743  -44.3256    1.8677  -43.6933    2.6207  -43.7625    2.6713
  4.900  -43.3555    2.1730  -43.3471    2.5971  -43.2930    2.5671  -43.7023    1.8805  -43.0889    2.6130  -43.1607    2.6657
  4.910  -42.7515    2.1821  -42.7468    2.5939  -42.6894    2.5631  -43.0859    1.8956  -42.4904    2.6087  -42.5649    2.6634
  4.920  -42.1530    2.1940  -42.1522    2.5941  -42.0912    2.5624  -42.4755    1.9131  -41.8970    2.6076  -41.9743    2.6646
  4.930  -41.5595    2.2087  -41.5624    2.5976  -41.4976    2.5650  -41.8705    1.9331  -41.3080    2.6098  -41.3884    2.6691
  4.940  -40.9702    2.2265  -40.9768    2.6046  -40.9081    2.5709  -41.2702    1.9556  -40.7229    2.6153  -40.8064    2.6772
  4.950  -40.3845    2.2473  -40.3949    2.6150  -40.3220    2.5803  -40.6739    1.9808  -40.1409    2.6243  -40.2278    2.6887
  4.960  -39.8018    2.2713  -39.8159    2.6290  -39.7385    2.5933  -40.0809    2.0088  -39.5615    2.6368  -39.6520    2.7040
  4.970  -39.2213    2.2987  -39.2393    2.6468  -39.1572    2.6099  -39.4905    2.0398  -38.9840    2.6530  -39.0783    2.7230
  4.980  -38.6425    2.3296  -38.6644    2.6684  -38.5773    2.6304  -38.9020    2.0739  -38.4078    2.6729  -38.5061    2.7460
  4.990  -38.0647    2.3644  -38.0906    2.6940  -37.9982    2.6548  -38.3148    2.1114  -37.8321    2.6967  -37.9348    2.7731
  5.000  -37.4873    2.4031  -37.5172    2.7240  -37.4192    2.6834  -37.7282    2.1524  -37.2565    2.7247  -37.3638    2.8045
  5.010  -36.9096    2.4461  -36.9437    2.7584  -36.8397    2.7165  -37.1415    2.1973  -36.6802    2.7571  -36.7923    2.8406
  5.020  -36.3310    2.4936  -36.3693    2.7977  -36.2590    2.7543  -36.5540    2.2463  -36.1025    2.7941  -36.2199    2.8814
  5.030  -35.7507    2.5461  -35.7934    2.8420  -35.6763    2.7972  -35.9649    2.2997  -35.5227    2.8359  -35.6457    2.9275
  5.040  -35.1682    2.6040  -35.2153    2.8919  -35.0911    2.8455  -35.3736    2.3580  -34.9402    2.8831  -35.0692    2.9791
  5.050  -34.5826    2.6677  -34.6344    2.9478  -34.5025    2.8996  -34.7793    2.4215  -34.3541    2.9359  -34.4896    3.0367
  5.060  -33.9932    2.7377  -34.0499    3.0101  -33.9098    2.9601  -34.1811    2.4907  -33.7637    2.9949  -33.9062    3.1007
  5.070  -33.3994    2.8146  -33.4610    3.0794  -33.3122    3.0275  -33.5784    2.5661  -33.1683    3.0605  -33.3183    3.1719
  5.080  -32.8003    2.8993  -32.8671    3.1565  -32.7089    3.1025  -32.9702    2.6485  -32.5669    3.1334  -32.7250    3.2507
  5.090  -32.1952    2.9923  -32.2674    3.2420  -32.0992    3.1858  -32.3556    2.7385  -31.9587    3.2142  -32.1256    3.3379
  5.100  -31.5832    3.0947  -31.6610    3.3369  -31.4820    3.2783  -31.7339    2.8369  -31.3429    3.3038  -31.5193    3.4345
  5.110  -30.9636    3.2076  -31.0472    3.4423  -30.8567    3.3810  -31.1040    2.9446  -30.7184    3.4031  -30.9053    3.5414
  5.120  -30.3357    3.3322  -30.4253    3.5593  -30.2223    3.4951  -30.4650    3.0629  -30.0844    3.5131  -30.2826    3.6598
  5.130  -29.6986    3.4699  -29.7945    3.6894  -29.5779    3.6221  -29.8160    3.1929  -29.4398    3.6352  -29.6506    3.7911
  5.140  -29.0516    3.6225  -29.1540    3.8342  -28.9228    3.7634  -29.1559    3.3361  -28.7837    3.7708  -29.0082    3.9368
  5.150  -28.3943    3.7918  -28.5033    3.9957  -28.2563    3.9209  -28.4839    3.4942  -28.1151    3.9216  -28.3548    4.0988
  5.160  -27.7261    3.9802  -27.8421    4.1761  -27.5777    4.0969  -27.7991    3.6693  -27.4331    4.0896  -27.6898    4.2793
  5.170  -27.0470    4.1903  -27.1700    4.3781  -26.8866    4.2939  -27.1008    3.8637  -26.7369    4.2771  -27.0126    4.4809
  5.180  -26.3572    4.4251  -26.4874    4.6048  -26.1832    4.5146  -26.3883    4.0800  -26.0259    4.4868  -26.3230    4.7066
  5.190  -25.6576    4.6881  -25.7951    4.8596  -25.4678    4.7625  -25.6617    4.3214  -25.2999    4.7218  -25.6213    4.9598
  5.200  -24.9500    4.9830  -25.0947    5.1465  -24.7417    5.0411  -24.9210    4.5913  -24.5591    4.9856  -24.9085    5.2445
  5.210  -24.2373    5.3138  -24.3893    5.4697  -24.0073    5.3542  -24.1675    4.8935  -23.8043    5.2819  -24.1863    5.5652
  5.220  -23.5241    5.6844  -23.6834    5.8333  -23.2683    5.7054  -23.4030    5.2319  -23.0373    5.6148  -23.4581    5.9266
  5.230  -22.8172    6.0978  -22.9839    6.2409  -22.5304    6.0978  -22.6310    5.6104  -22.2614    5.9881  -22.7289    6.3335
  5.240  -22.1256    6.5555  -22.3003    6.6946  -21.8011    6.5324  -21.8561    6.0320  -21.4808    6.4049  -22.0061    6.7901
  5.250  -21.4611    7.0555  -21.6448    7.1933  -21.0899    7.0072  -21.0848    6.4979  -20.7015    6.8667  -21.3001    7.2987
  5.260  -20.8369    7.5903  -21.0321    7.7302  -20.4069    7.5149  -20.3239    7.0066  -19.9299    7.3722  -20.6238    7.8586
  5.270  -20.2660    8.1447  -20.4768    8.2910  -19.7601    8.0411  -19.5797    7.5530  -19.1712    7.9168  -19.9927    8.4640
  5.280  -19.7564    8.6941  -19.9899    8.8513  -19.1500    8.5641  -18.8549    8.1284  -18.4270    8.4927  -19.4232    9.1023
  5.290  -19.3059    9.2047  -19.5730    9.3771  -18.5634    9.0585  -18.1465    8.7234  -17.6924    9.0924  -18.9313    9.7520
  5.300  -18.8951    9.6380  -19.2123    9.8277  -17.9688    9.5052  -17.4464    9.3327  -16.9565    9.7152  -18.5309   10.3790
  5.310  -18.4825    9.9568  -18.8726   10.1597  -17.3205    9.9062  -16.7482    9.9583  -16.2126   10.3727  -18.2285   10.9269
  5.320  -17.9973   10.1369  -18.4877   10.3370  -16.5786   10.2974  -16.0550   10.6007  -15.4737   11.0806  -17.9965   11.3056
  5.330  -17.3359   10.1960  -17.9517   10.3592  -15.7433   10.7353  -15.3727   11.2433  -14.7748   11.8278  -17.7156   11.4177
  5.340  -16.4084   10.2393  -17.1566   10.3108  -14.8628   11.2417  -14.6833   11.8527  -14.1282   12.5527  -17.1660   11.2768
  5.350  -15.2377   10.4108  -16.0862   10.3349  -13.9625   11.7673  -13.9326   12.4094  -13.4720   13.1900  -16.1850   11.0832
  5.360  -13.9202   10.7573  -14.8118   10.5155  -12.9833   12.2641  -13.0532   12.9337  -12.6999   13.7421  -14.8059   11.0750
  5.370  -12.4930   11.2518  -13.3870   10.8623  -11.8350   12.7594  -11.9922   13.4814  -11.7294   14.2788  -13.1661   11.3695
  5.380  -10.9365   11.8917  -11.8224   11.3798  -10.4656   13.3356  -10.7243   14.1269  -10.5267   14.8955  -11.3780   11.9831
  5.390   -9.2307   12.7131  -10.1178   12.0922   -8.8699   14.0822   -9.2514   14.9475   -9.0968   15.6843   -9.5018   12.9024
  5.400   -7.3741   13.7666   -8.2789   13.0337   -7.0690   15.0744   -7.5956   16.0130   -7.4678   16.7229   -7.5633   14.1206
  5.410   -5.3775   15.1041   -6.3153   14.2408   -5.0914   16.3737   -5.7881   17.3833   -5.6774   18.0750   -5.5727   15.6475
  5.420   -3.2562   16.7791   -4.2371   15.7545   -2.9643   18.0378   -3.8624   19.1144   -3.7646   19.7981   -3.5364   17.5118
  5.430   -1.0284   18.8534   -2.0545   17.6251   -0.7140   20.1320   -1.8542   21.2673   -1.7698   21.9527   -1.4655   19.7612
  5.440    1.2809   21.4046    0.2181   19.9182    1.6280   22.7383    0.1930   23.9145    0.2589   24.6107    0.6165   22.4624
  5.450    3.6305   24.5311    2.5551   22.7200    4.0133   25.9619    2.2176   27.1449    2.2556   27.8589    2.6654   25.7015
  5.460    5.9499   28.3568    4.9091   26.1408    6.3611   29.9353    4.1263   31.0644    4.1224   31.7996    4.6048   29.5825
  5.470    8.1195   33.0312    7.1952   30.3184    8.5356   34.8183    5.7754   35.7918    5.7111   36.5451    6.3104   34.2241
  5.480    9.9417   38.7222    9.2684   35.4163   10.3131   40.7884    6.9475   41.4452    6.8015   42.2030    7.5891   39.7490
  5.490   11.1020   45.5939   10.8887   41.6133   11.3391   48.0120    7.3236   48.1129    7.0779   48.8457    8.1522   46.2605
  5.500   11.1232   53.7513   11.6758   49.0704   11.0800   56.5783    6.4592   55.7975    6.1114   56.4575    7.5872   53.7956
  5.510    9.3320   63.1305   11.0579   57.8543    8.7955   66.3703    3.7831   64.3218    3.3662   64.8510    5.3425   62.2400
  5.520    4.8920   73.3161    8.2497   67.7882    3.5977   76.8605   -1.3411   73.1958   -1.7424   73.5573    0.7624   71.1928
  5.530   -2.9938   83.3193    2.3438   78.2208   -5.2935   86.8877   -9.4255   81.4859   -9.6917   81.7182   -6.7538   79.8044
  5.540  -14.6226   91.4972   -7.3530   87.8076  -18.0235   94.6309  -20.5055   87.8198  -20.5624   88.0709  -17.3948   86.7171
  5.550  -29.2125   95.9294  -20.7093   94.6011  -33.5214   98.1126  -33.7554   90.7321  -33.6811   91.1924  -30.4797   90.3592
  5.560  -44.7601   95.3384  -36.2654   96.7681  -49.4892   96.2276  -47.4660   89.3581  -47.4868   90.0974  -44.3314   89.6807
  5.570  -58.7988   89.9122  -51.5412   93.6676  -63.3596   89.5029  -59.6668   83.9929  -59.9907   84.8758  -56.8809   84.8336
  5.580  -69.5739   81.1789  -64.2158   86.2900  -73.5238   79.7607  -68.9998   75.9413  -69.6638   76.7345  -66.6319   77.0896
  5.590  -76.6011   71.0732  -73.1491   76.5703  -79.7488   69.0410  -75.1141   66.7922  -76.0008   67.3268  -73.1378   68.0814
  5.600  -80.3637   61.1040  -78.4424   66.3394  -82.7189   58.8009  -78.4226   57.7864  -79.3708   58.0148  -76.7715   59.1103
  5.610  -81.7181   52.1033  -80.8639   56.7741  -83.3909   49.7626  -79.6396   49.6195  -80.5239   49.5800  -78.2406   50.9213
  5.620  -81.4839   44.3683  -81.3025   48.4050  -82.6090   42.1248  -79.4551   42.5505  -80.2046   42.3140  -78.2433   43.8070
  5.630  -80.2888   37.8917  -80.4969   41.3450  -80.9885   35.8126  -78.4059   36.5825  -78.9924   36.2200  -77.3298   37.7923
  5.640  -78.5617   32.5332  -78.9768   35.5005  -78.9347   30.6469  -76.8654   31.6023  -77.2858   31.1728  -75.8883   32.7772
  5.650  -76.5768   28.1156  -77.0931   30.7015  -76.6996   26.4312  -75.0767   27.4611  -75.3412   27.0105  -74.1771   28.6198
  5.660  -74.5017   24.4686  -75.0673   26.7663  -74.4341   22.9869  -73.1910   24.0123  -73.3164   23.5764  -72.3621   25.1750
  5.670  -72.4350   21.4452  -73.0343   23.5272  -72.2269   20.1635  -71.2983   21.1276  -71.3059   20.7343  -70.5468   22.3097
  5.680  -70.4320   18.9244  -71.0702   20.8379  -70.1281   17.8366  -69.4493   18.7004  -69.3647   18.3702  -68.7913   19.9071
  5.690  -68.5215   16.8088  -69.2105   18.5767  -68.1631   15.9033  -67.6707   16.6456  -67.5221   16.3899  -67.1245   17.8681
  5.700  -66.7164   15.0211  -67.4624   16.6475  -66.3394   14.2791  -65.9751   14.8960  -65.7908   14.7165  -65.5524   16.1133
  5.710  -65.0201   13.5001  -65.8184   14.9808  -64.6517   12.8966  -64.3680   13.3992  -64.1717   13.2886  -64.0682   14.5849
  5.720  -63.4306   12.1972  -64.2663   13.5292  -63.0878   11.7052  -62.8507   12.1130  -62.6589   12.0585  -62.6614   13.2434
  5.730  -61.9429   11.0741  -62.7970   12.2605  -61.6332   10.6684  -61.4223   11.0026  -61.2439   10.9903  -61.3238   12.0622
  5.740  -60.5508   10.1002  -61.4047   11.1502  -60.2753    9.7600  -60.0799   10.0392  -59.9182   10.0568  -60.0509   11.0210
  5.750  -59.2474    9.2507  -60.0865   10.1776  -59.0036    8.9603  -58.8191    9.1991  -58.6740    9.2369  -58.8403   10.1028
  5.760  -58.0258    8.5058  -58.8399    9.3244  -57.8098    8.2537  -57.6347    8.4625  -57.5045    8.5136  -57.6906    9.2922
  5.770  -56.8796    7.8494  -57.6622    8.5739  -56.6872    7.6273  -56.5214    7.8133  -56.4036    7.8730  -56.6000    8.5752
  5.780  -55.8023    7.2682  -56.5501    7.9119  -55.6298    7.0704  -55.4736    7.2383  -55.3660    7.3036  -55.5662    7.9392
  5.790  -54.7883    6.7513  -55.5000    7.3257  -54.6324    6.5735  -54.4862    6.7267  -54.3867    6.7955  -54.5865    7.3732
  5.800  -53.8323    6.2896  -54.5080    6.8047  -53.6904    6.1288  -53.5541    6.2694  -53.4611    6.3406  -53.6579    6.8678
  5.810  -52.9294    5.8756  -53.5702    6.3398  -52.7994    5.7295  -52.6729    5.8591  -52.5851    5.9317  -52.7771    6.4150
  5.820  -52.0753    5.5031  -52.6826    5.9234  -51.9554    5.3698  -51.8385    5.4896  -51.7548    5.5631  -51.9410    6.0077
  5.830  -51.2660    5.1666  -51.8415    5.5490  -51.1548    5.0447  -51.0471    5.1555  -50.9666    5.2297  -51.1466    5.6402
  5.840  -50.4979    4.8617  -51.0435    5.2113  -50.3943    4.7500  -50.2952    4.8526  -50.2175    4.9272  -50.3909    5.3075
  5.850  -49.7677    4.5846  -50.2853    4.9054  -49.6708    4.4820  -49.5799    4.5770  -49.5043    4.6519  -49.6712    5.0053
  5.860  -49.0726    4.3319  -49.5639    4.6277  -48.9815    4.2377  -48.8983    4.3255  -48.8245    4.4007  -48.9849    4.7300
  5.870  -48.4097    4.1009  -48.8766    4.3746  -48.3239    4.0144  -48.2479    4.0955  -48.1755    4.1708  -48.3297    4.4785
  5.880  -47.7768    3.8892  -48.2209    4.1434  -47.6957    3.8096  -47.6263    3.8844  -47.5553    3.9598  -47.7033    4.2481
  5.890  -47.1716    3.6947  -47.5944    3.9315  -47.0948    3.6215  -47.0316    3.6904  -46.9616    3.7659  -47.1038    4.0365
  5.900  -46.5922    3.5154  -46.9952    3.7369  -46.5192    3.4482  -46.4617    3.5115  -46.3927    3.5870  -46.5293    3.8417
  5.910  -46.0367    3.3500  -46.4212    3.5577  -45.9672    3.2882  -45.9151    3.3463  -45.8469    3.4218  -45.9782    3.6619
  5.920  -45.5035    3.1969  -45.8708    3.3923  -45.4373    3.1401  -45.3900    3.1933  -45.3226    3.2689  -45.4488    3.4956
  5.930  -44.9911    3.0550  -45.3423    3.2393  -44.9279    3.0029  -44.8851    3.0514  -44.8184    3.1270  -44.9398    3.3414
  5.940  -44.4981    2.9232  -44.8342    3.0975  -44.4377    2.8754  -44.3991    2.9195  -44.3330    2.9951  -44.4498    3.1983
  5.950  -44.0233    2.8005  -44.3453    2.9657  -43.9655    2.7567  -43.9307    2.7967  -43.8653    2.8722  -43.9777    3.0651
  5.960  -43.5656    2.6861  -43.8743    2.8431  -43.5101    2.6461  -43.4789    2.6822  -43.4140    2.7576  -43.5223    2.9410
  5.970  -43.1238    2.5793  -43.4202    2.7288  -43.0706    2.5428  -43.0427    2.5752  -42.9783    2.6506  -43.0827    2.8250
  5.980  -42.6970    2.4794  -42.9818    2.6220  -42.6459    2.4461  -42.6211    2.4751  -42.5573    2.5503  -42.6579    2.7166
  5.990  -42.2844    2.3858  -42.5582    2.5221  -42.2353    2.3556  -42.2132    2.3813  -42.1499    2.4564  -42.2470    2.6150
  6.000  -41.8851    2.2979  -42.1486    2.4285  -41.8378    2.2706  -41.8183    2.2932  -41.7556    2.3682  -41.8492    2.5197
  6.010  -41.4983    2.2154  -41.7521    2.3406  -41.4528    2.1907  -41.4357    2.2104  -41.3734    2.2852  -41.4639    2.4302
  6.020  -41.1234    2.1377  -41.3680    2.2581  -41.0795    2.1155  -41.0647    2.1325  -41.0029    2.2072  -41.0903    2.3459
  6.030  -40.7597    2.0646  -40.9957    2.1804  -40.7174    2.0447  -40.7046    2.0591  -40.6433    2.1336  -40.7278    2.2665
  6.040  -40.4066    1.9955  -40.6344    2.1072  -40.3658    1.9778  -40.3549    1.9898  -40.2940    2.0641  -40.3758    2.1916
  6.050  -40.0636    1.9303  -40.2837    2.0381  -40.0241    1.9147  -40.0150    1.9244  -39.9546    1.9984  -40.0338    2.1208
  6.060  -39.7301    1.8687  -39.9429    1.9728  -39.6919    1.8550  -39.6845    1.8625  -39.6246    1.9363  -39.7012    2.0539
  6.070  -39.4056    1.8103  -39.6115    1.9110  -39.3687    1.7984  -39.3628    1.8038  -39.3034    1.8775  -39.3776    1.9906
  6.080  -39.0898    1.7550  -39.2891    1.8525  -39.0541    1.7448  -39.0496    1.7483  -38.9906    1.8217  -39.0625    1.9305
  6.090  -38.7821    1.7025  -38.9752    1.7971  -38.7476    1.6939  -38.7444    1.6956  -38.6859    1.7687  -38.7556    1.8735
  6.100  -38.4823    1.6526  -38.6694    1.7445  -38.4488    1.6455  -38.4469    1.6455  -38.3888    1.7184  -38.4564    1.8194
  6.110  -38.1899    1.6053  -38.3714    1.6945  -38.1575    1.5996  -38.1567    1.5979  -38.0990    1.6705  -38.1647    1.7679
  6.120  -37.9046    1.5602  -38.0807    1.6469  -37.8732    1.5558  -37.8734    1.5526  -37.8162    1.6249  -37.8799    1.7190
  6.130  -37.6261    1.5172  -37.7970    1.6017  -37.5956    1.5141  -37.5968    1.5094  -37.5401    1.5815  -37.6020    1.6723
  6.140  -37.3540    1.4763  -37.5201    1.5586  -37.3244    1.4744  -37.3266    1.4683  -37.2703    1.5400  -37.3304    1.6278
  6.150  -37.0882    1.4372  -37.2496    1.5174  -37.0594    1.4364  -37.0625    1.4290  -37.0066    1.5005  -37.0651    1.5854
  6.160  -36.8283    1.3999  -36.9853    1.4782  -36.8004    1.4001  -36.8042    1.3916  -36.7487    1.4627  -36.8056    1.5448
  6.170  -36.5740    1.3642  -36.7268    1.4407  -36.5469    1.3655  -36.5515    1.3557  -36.4965    1.4266  -36.5518    1.5061
  6.180  -36.3253    1.3301  -36.4740    1.4049  -36.2989    1.3323  -36.3042    1.3215  -36.2496    1.3920  -36.3034    1.4690
  6.190  -36.0817    1.2975  -36.2265    1.3706  -36.0561    1.3006  -36.0621    1.2887  -36.0079    1.3589  -36.0603    1.4335
  6.200  -35.8432    1.2662  -35.9843    1.3377  -35.8183    1.2701  -35.8249    1.2572  -35.7711    1.3271  -35.8221    1.3995
  6.210  -35.6095    1.2363  -35.7471    1.3062  -35.5853    1.2410  -35.5924    1.2271  -35.5390    1.2967  -35.5888    1.3669
  6.220  -35.3805    1.2075  -35.5146    1.2761  -35.3569    1.2130  -35.3646    1.1983  -35.3116    1.2675  -35.3601    1.3356
  6.230  -35.1559    1.1799  -35.2868    1.2471  -35.1330    1.1861  -35.1411    1.1705  -35.0886    1.2394  -35.1358    1.3056
  6.240  -34.9357    1.1534  -35.0634    1.2193  -34.9133    1.1602  -34.9219    1.1439  -34.8697    1.2125  -34.9158    1.2767
  6.250  -34.7195    1.1280  -34.8442    1.1926  -34.6978    1.1354  -34.7068    1.1183  -34.6550    1.1865  -34.7000    1.2490
  6.260  -34.5074    1.1035  -34.6292    1.1669  -34.4862    1.1115  -34.4956    1.0937  -34.4443    1.1616  -34.4881    1.2223
  6.270  -34.2991    1.0799  -34.4181    1.1421  -34.2785    1.0885  -34.2882    1.0700  -34.2373    1.1376  -34.2801    1.1966
  6.280  -34.0946    1.0572  -34.2109    1.1183  -34.0744    1.0663  -34.0846    1.0472  -34.0340    1.1144  -34.0758    1.1719
  6.290  -33.8936    1.0353  -34.0074    1.0954  -33.8740    1.0449  -33.8844    1.0253  -33.8343    1.0921  -33.8751    1.1481
  6.300  -33.6962    1.0143  -33.8074    1.0733  -33.6770    1.0243  -33.6877    1.0041  -33.6380    1.0706  -33.6778    1.1251
  6.310  -33.5020    0.9939  -33.6109    1.0520  -33.4833    1.0045  -33.4943    0.9837  -33.4450    1.0499  -33.4839    1.1029
  6.320  -33.3112    0.9743  -33.4177    1.0315  -33.2929    0.9853  -33.3042    0.9640  -33.2552    1.0298  -33.2933    1.0815
  6.330  -33.1234    0.9554  -33.2277    1.0116  -33.1056    0.9667  -33.1171    0.9450  -33.0685    1.0105  -33.1057    1.0609
  6.340  -32.9387    0.9371  -33.0409    0.9924  -32.9213    0.9488  -32.9331    0.9266  -32.8848    0.9918  -32.9212    1.0409
  6.350  -32.7570    0.9194  -32.8571    0.9739  -32.7400    0.9315  -32.7519    0.9089  -32.7041    0.9737  -32.7397    1.0216
  6.360  -32.5781    0.9023  -32.6762    0.9560  -32.5615    0.9147  -32.5736    0.8917  -32.5261    0.9562  -32.5610    1.0029
  6.370  -32.4020    0.8858  -32.4982    0.9387  -32.3857    0.8985  -32.3981    0.8751  -32.3509    0.9392  -32.3851    0.9849
  6.380  -32.2286    0.8698  -32.3229    0.9219  -32.2127    0.8828  -32.2252    0.8591  -32.1784    0.9228  -32.2118    0.9674
  6.390  -32.0577    0.8543  -32.1503    0.9057  -32.0422    0.8676  -32.0549    0.8435  -32.0085    0.9069  -32.0412    0.9505
  6.400  -31.8895    0.8393  -31.9802    0.8900  -31.8743    0.8529  -31.8871    0.8285  -31.8410    0.8915  -31.8730    0.9341
  6.410  -31.7236    0.8247  -31.8127    0.8747  -31.7088    0.8386  -31.7217    0.8139  -31.6760    0.8766  -31.7074    0.9182
  6.420  -31.5602    0.8106  -31.6476    0.8600  -31.5457    0.8247  -31.5587    0.7997  -31.5134    0.8621  -31.5441    0.9028
  6.430  -31.3991    0.7970  -31.4850    0.8456  -31.3849    0.8113  -31.3980    0.7860  -31.3530    0.8481  -31.3831    0.8878
  6.440  -31.2402    0.7837  -31.3246    0.8317  -31.2263    0.7982  -31.2396    0.7727  -31.1949    0.8345  -31.2244    0.8733
  6.450  -31.0836    0.7708  -31.1664    0.8182  -31.0700    0.7856  -31.0833    0.7598  -31.0390    0.8212  -31.0679    0.8592
  6.460  -30.9291    0.7583  -31.0105    0.8051  -30.9158    0.7732  -30.9292    0.7473  -30.8852    0.8084  -30.9136    0.8455
  6.470  -30.7766    0.7462  -30.8567    0.7924  -30.7636    0.7613  -30.7771    0.7351  -30.7334    0.7959  -30.7613    0.8322
  6.480  -30.6262    0.7344  -30.7049    0.7801  -30.6135    0.7497  -30.6270    0.7233  -30.5837    0.7837  -30.6110    0.8193
  6.490  -30.4778    0.7230  -30.5552    0.7681  -30.4653    0.7383  -30.4789    0.7118  -30.4359    0.7719  -30.4627    0.8068
  6.500  -30.3313    0.7118  -30.4074    0.7564  -30.3191    0.7273  -30.3327    0.7007  -30.2900    0.7604  -30.3163    0.7946
  6.510  -30.1867    0.7010  -30.2616    0.7450  -30.1747    0.7166  -30.1884    0.6898  -30.1460    0.7492  -30.1718    0.7827
  6.520  -30.0439    0.6904  -30.1176    0.7339  -30.0322    0.7062  -30.0459    0.6792  -30.0039    0.7383  -30.0292    0.7711
  6.530  -29.9029    0.6802  -29.9754    0.7232  -29.8914    0.6961  -29.9052    0.6689  -29.8634    0.7277  -29.8883    0.7599
  6.540  -29.7637    0.6702  -29.8350    0.7127  -29.7524    0.6862  -29.7662    0.6589  -29.7247    0.7174  -29.7492    0.7489
  6.550  -29.6261    0.6604  -29.6964    0.7025  -29.6150    0.6766  -29.6289    0.6492  -29.5877    0.7073  -29.6117    0.7382
  6.560  -29.4902    0.6510  -29.5594    0.6925  -29.4793    0.6672  -29.4932    0.6397  -29.4524    0.6975  -29.4760    0.7278
  6.570  -29.3559    0.6417  -29.4241    0.6829  -29.3453    0.6580  -29.3592    0.6305  -29.3186    0.6880  -29.3418    0.7177
  6.580  -29.2232    0.6327  -29.2904    0.6734  -29.2128    0.6491  -29.2267    0.6214  -29.1865    0.6787  -29.2092    0.7078
  6.590  -29.0921    0.6239  -29.1583    0.6642  -29.0819    0.6404  -29.0958    0.6127  -29.0558    0.6696  -29.0782    0.6982
  6.600  -28.9625    0.6154  -29.0277    0.6552  -28.9524    0.6319  -28.9663    0.6041  -28.9267    0.6607  -28.9487    0.6887
  6.610  -28.8343    0.6070  -28.8986    0.6464  -28.8245    0.6236  -28.8384    0.5957  -28.7991    0.6520  -28.8207    0.6796
  6.620  -28.7076    0.5989  -28.7710    0.6379  -28.6980    0.6155  -28.7119    0.5876  -28.6728    0.6436  -28.6941    0.6706
  6.630  -28.5824    0.5909  -28.6449    0.6295  -28.5729    0.6076  -28.5868    0.5796  -28.5480    0.6353  -28.5689    0.6619
  6.640  -28.4585    0.5832  -28.5201    0.6214  -28.4491    0.5999  -28.4631    0.5719  -28.4246    0.6273  -28.4451    0.6533
  6.650  -28.3359    0.5756  -28.3968    0.6134  -28.3268    0.5923  -28.3407    0.5643  -28.3025    0.6194  -28.3227    0.6450
  6.660  -28.2147    0.5682  -28.2747    0.6056  -28.2057    0.5850  -28.2196    0.5569  -28.1817    0.6117  -28.2016    0.6368
  6.670  -28.0948    0.5609  -28.1541    0.5980  -28.0860    0.5778  -28.0999    0.5496  -28.0622    0.6042  -28.0818    0.6289
  6.680  -27.9762    0.5539  -28.0347    0.5906  -27.9675    0.5707  -27.9814    0.5426  -27.9440    0.5968  -27.9633    0.6211
  6.690  -27.8588    0.5469  -27.9165    0.5833  -27.8503    0.5638  -27.8641    0.5356  -27.8270    0.5896  -27.8460    0.6135
  6.700  -27.7427    0.5402  -27.7996    0.5762  -27.7343    0.5571  -27.7481    0.5289  -27.7113    0.5826  -27.7299    0.6060
  6.710  -27.6277    0.5336  -27.6840    0.5693  -27.6195    0.5505  -27.6333    0.5223  -27.5967    0.5757  -27.6151    0.5988
  6.720  -27.5139    0.5271  -27.5695    0.5625  -27.5058    0.5441  -27.5196    0.5158  -27.4833    0.5690  -27.5014    0.5916
  6.730  -27.4013    0.5208  -27.4562    0.5558  -27.3933    0.5377  -27.4071    0.5095  -27.3710    0.5624  -27.3888    0.5847
  6.740  -27.2898    0.5146  -27.3440    0.5493  -27.2820    0.5316  -27.2957    0.5033  -27.2599    0.5559  -27.2774    0.5778
  6.750  -27.1794    0.5085  -27.2330    0.5429  -27.1717    0.5255  -27.1854    0.4973  -27.1498    0.5496  -27.1671    0.5712
  6.760  -27.0701    0.5026  -27.1230    0.5367  -27.0625    0.5196  -27.0762    0.4913  -27.0409    0.5434  -27.0579    0.5646
  6.770  -26.9618    0.4968  -27.0142    0.5306  -26.9544    0.5138  -26.9681    0.4855  -26.9330    0.5373  -26.9498    0.5582
  6.780  -26.8546    0.4911  -26.9064    0.5246  -26.8473    0.5081  -26.8610    0.4799  -26.8261    0.5314  -26.8427    0.5519
  6.790  -26.7485    0.4856  -26.7996    0.5187  -26.7413    0.5025  -26.7549    0.4743  -26.7203    0.5256  -26.7366    0.5458
  6.800  -26.6433    0.4801  -26.6939    0.5130  -26.6362    0.4970  -26.6498    0.4688  -26.6155    0.5199  -26.6315    0.5398
  6.810  -26.5391    0.4747  -26.5892    0.5073  -26.5322    0.4917  -26.5457    0.4635  -26.5116    0.5143  -26.5274    0.5339
  6.820  -26.4359    0.4695  -26.4854    0.5018  -26.4291    0.4864  -26.4426    0.4583  -26.4087    0.5088  -26.4243    0.5281
  6.830  -26.3337    0.4644  -26.3827    0.4964  -26.3270    0.4813  -26.3404    0.4531  -26.3068    0.5034  -26.3222    0.5224
  6.840  -26.2324    0.4593  -26.2808    0.4911  -26.2258    0.4762  -26.2392    0.4481  -26.2058    0.4981  -26.2210    0.5169
  6.850  -26.1320    0.4544  -26.1800    0.4859  -26.1255    0.4712  -26.1389    0.4432  -26.1057    0.4930  -26.1207    0.5114
  6.860  -26.0326    0.4496  -26.0800    0.4808  -26.0262    0.4664  -26.0395    0.4384  -26.0066    0.4879  -26.0213    0.5060
  6.870  -25.9340    0.4448  -25.9809    0.4758  -25.9277    0.4616  -25.9410    0.4336  -25.9083    0.4829  -25.9228    0.5008
  6.880  -25.8363    0.4401  -25.8828    0.4708  -25.8301    0.4569  -25.8434    0.4290  -25.8109    0.4780  -25.8252    0.4956
  6.890  -25.7394    0.4356  -25.7855    0.4660  -25.7334    0.4523  -25.7466    0.4244  -25.7143    0.4732  -25.7285    0.4906
  6.900  -25.6435    0.4311  -25.6890    0.4613  -25.6375    0.4478  -25.6506    0.4199  -25.6186    0.4685  -25.6325    0.4856
  6.910  -25.5483    0.4267  -25.5934    0.4566  -25.5424    0.4434  -25.5555    0.4155  -25.5237    0.4639  -25.5375    0.4807
  6.920  -25.4540    0.4224  -25.4987    0.4521  -25.4482    0.4390  -25.4613    0.4112  -25.4296    0.4593  -25.4432    0.4760
  6.930  -25.3604    0.4181  -25.4047    0.4476  -25.3547    0.4347  -25.3678    0.4070  -25.3364    0.4549  -25.3498    0.4713
  6.940  -25.2677    0.4139  -25.3116    0.4432  -25.2621    0.4305  -25.2751    0.4028  -25.2439    0.4505  -25.2571    0.4666
  6.950  -25.1757    0.4098  -25.2192    0.4388  -25.1702    0.4264  -25.1832    0.3987  -25.1522    0.4462  -25.1653    0.4621
  6.960  -25.0846    0.4058  -25.1277    0.4346  -25.0791    0.4223  -25.0920    0.3947  -25.0613    0.4419  -25.0742    0.4577
  6.970  -24.9941    0.4019  -25.0369    0.4304  -24.9888    0.4183  -25.0016    0.3908  -24.9711    0.4378  -24.9838    0.4533
  6.980  -24.9045    0.3980  -24.9468    0.4263  -24.8992    0.4144  -24.9120    0.3869  -24.8816    0.4337  -24.8942    0.4490
  6.990  -24.8155    0.3942  -24.8575    0.4223  -24.8103    0.4106  -24.8231    0.3831  -24.7929    0.4297  -24.8053    0.4447
  7.000  -24.7273    0.3904  -24.7689    0.4183  -24.7221    0.4068  -24.7349    0.3793  -24.7049    0.4257  -24.7172    0.4406
  7.010  -24.6398    0.3867  -24.6810    0.4144  -24.6347    0.4030  -24.6474    0.3756  -24.6177    0.4218  -24.6298    0.4365
  7.020  -24.5529    0.3831  -24.5939    0.4106  -24.5480    0.3994  -24.5606    0.3720  -24.5311    0.4180  -24.5430    0.4325
  7.030  -24.4668    0.3795  -24.5074    0.4068  -24.4619    0.3958  -24.4745    0.3685  -24.4452    0.4142  -24.4570    0.4285
  7.040  -24.3814    0.3760  -24.4217    0.4031  -24.3765    0.3922  -24.3891    0.3650  -24.3600    0.4105  -24.3716    0.4247
  7.050  -24.2966    0.3726  -24.3366    0.3994  -24.2918    0.3887  -24.3044    0.3615  -24.2754    0.4069  -24.2869    0.4208
  7.060  -24.2125    0.3692  -24.2521    0.3958  -24.2078    0.3853  -24.2203    0.3582  -24.1915    0.4033  -24.2029    0.4171
  7.070  -24.1290    0.3659  -24.1684    0.3923  -24.1244    0.3819  -24.1369    0.3548  -24.1083    0.3998  -24.1195    0.4134
  7.080  -24.0462    0.3626  -24.0853    0.3888  -24.0416    0.3786  -24.0541    0.3516  -24.0257    0.3963  -24.0368    0.4097
  7.090  -23.9640    0.3594  -24.0028    0.3854  -23.9595    0.3753  -23.9719    0.3483  -23.9437    0.3929  -23.9546    0.4062
  7.100  -23.8825    0.3562  -23.9209    0.3821  -23.8780    0.3721  -23.8904    0.3452  -23.8623    0.3896  -23.8732    0.4026
  7.110  -23.8015    0.3531  -23.8397    0.3787  -23.7971    0.3689  -23.8094    0.3420  -23.7816    0.3863  -23.7923    0.3992
  7.120  -23.7212    0.3500  -23.7591    0.3755  -23.7168    0.3658  -23.7291    0.3390  -23.7014    0.3830  -23.7120    0.3958
  7.130  -23.6414    0.3470  -23.6791    0.3723  -23.6372    0.3627  -23.6494    0.3360  -23.6219    0.3798  -23.6323    0.3924
  7.140  -23.5623    0.3440  -23.5997    0.3691  -23.5581    0.3597  -23.5702    0.3330  -23.5429    0.3767  -23.5533    0.3891
  7.150  -23.4837    0.3411  -23.5208    0.3660  -23.4795    0.3567  -23.4917    0.3300  -23.4645    0.3735  -23.4748    0.3858
  7.160  -23.4057    0.3382  -23.4426    0.3629  -23.4016    0.3537  -23.4137    0.3272  -23.3867    0.3705  -23.3968    0.3826
  7.170  -23.3283    0.3353  -23.3649    0.3599  -23.3242    0.3508  -23.3363    0.3243  -23.3095    0.3675  -23.3195    0.3795
  7.180  -23.2514    0.3325  -23.2878    0.3569  -23.2474    0.3480  -23.2594    0.3215  -23.2328    0.3645  -23.2427    0.3763
  7.190  -23.1750    0.3298  -23.2113    0.3540  -23.1711    0.3452  -23.1831    0.3188  -23.1567    0.3616  -23.1664    0.3733
  7.200  -23.0993    0.3271  -23.1353    0.3511  -23.0954    0.3424  -23.1073    0.3160  -23.0811    0.3587  -23.0907    0.3703
  7.210  -23.0240    0.3244  -23.0598    0.3483  -23.0202    0.3397  -23.0321    0.3134  -23.0060    0.3559  -23.0155    0.3673
  7.220  -22.9493    0.3217  -22.9849    0.3454  -22.9455    0.3370  -22.9574    0.3107  -22.9314    0.3531  -22.9409    0.3644
  7.230  -22.8751    0.3191  -22.9105    0.3427  -22.8714    0.3343  -22.8832    0.3081  -22.8574    0.3503  -22.8668    0.3615
  7.240  -22.8014    0.3166  -22.8366    0.3400  -22.7978    0.3317  -22.8095    0.3056  -22.7839    0.3476  -22.7932    0.3586
  7.250  -22.7283    0.3141  -22.7632    0.3373  -22.7246    0.3291  -22.7364    0.3030  -22.7109    0.3449  -22.7201    0.3558
  7.260  -22.6556    0.3116  -22.6903    0.3346  -22.6520    0.3266  -22.6637    0.3006  -22.6384    0.3423  -22.6475    0.3530
  7.270  -22.5834    0.3091  -22.6180    0.3320  -22.5799    0.3241  -22.5916    0.2981  -22.5664    0.3397  -22.5754    0.3503
  7.280  -22.5117    0.3067  -22.5461    0.3294  -22.5082    0.3216  -22.5199    0.2957  -22.4949    0.3371  -22.5038    0.3476
  7.290  -22.4405    0.3043  -22.4747    0.3269  -22.4371    0.3192  -22.4487    0.2933  -22.4239    0.3346  -22.4326    0.3450
  7.300  -22.3698    0.3020  -22.4039    0.3244  -22.3664    0.3168  -22.3780    0.2909  -22.3533    0.3321  -22.3620    0.3424
  7.310  -22.2996    0.2997  -22.3334    0.3219  -22.2962    0.3144  -22.3077    0.2886  -22.2832    0.3296  -22.2918    0.3398
  7.320  -22.2298    0.2974  -22.2635    0.3195  -22.2265    0.3121  -22.2380    0.2863  -22.2136    0.3272  -22.2221    0.3373
  7.330  -22.1605    0.2951  -22.1940    0.3171  -22.1572    0.3098  -22.1686    0.2841  -22.1444    0.3248  -22.1528    0.3347
  7.340  -22.0916    0.2929  -22.1250    0.3147  -22.0884    0.3075  -22.0998    0.2819  -22.0757    0.3224  -22.0841    0.3323
  7.350  -22.0232    0.2907  -22.0564    0.3124  -22.0200    0.3052  -22.0314    0.2797  -22.0075    0.3201  -22.0157    0.3298
  7.360  -21.9552    0.2885  -21.9883    0.3101  -21.9520    0.3030  -21.9634    0.2775  -21.9396    0.3178  -21.9478    0.3274
  7.370  -21.8876    0.2864  -21.9206    0.3078  -21.8845    0.3008  -21.8959    0.2754  -21.8723    0.3155  -21.8803    0.3251
  7.380  -21.8205    0.2843  -21.8534    0.3056  -21.8175    0.2987  -21.8288    0.2732  -21.8053    0.3133  -21.8133    0.3227
  7.390  -21.7539    0.2822  -21.7866    0.3033  -21.7508    0.2966  -21.7621    0.2712  -21.7388    0.3111  -21.7467    0.3204
  7.400  -21.6876    0.2802  -21.7202    0.3012  -21.6846    0.2945  -21.6958    0.2691  -21.6727    0.3089  -21.6805    0.3181
  7.410  -21.6218    0.2782  -21.6542    0.2990  -21.6188    0.2924  -21.6300    0.2671  -21.6070    0.3068  -21.6148    0.3159
  7.420  -21.5564    0.2762  -21.5887    0.2969  -21.5534    0.2903  -21.5646    0.2651  -21.5417    0.3046  -21.5494    0.3137
  7.430  -21.4913    0.2742  -21.5236    0.2948  -21.4885    0.2883  -21.4996    0.2631  -21.4769    0.3025  -21.4845    0.3115
  7.440  -21.4267    0.2723  -21.4588    0.2927  -21.4239    0.2863  -21.4350    0.2611  -21.4124    0.3005  -21.4199    0.3093
  7.450  -21.3625    0.2704  -21.3945    0.2906  -21.3597    0.2843  -21.3708    0.2592  -21.3483    0.2984  -21.3558    0.3072
  7.460  -21.2987    0.2685  -21.3306    0.2886  -21.2959    0.2824  -21.3070    0.2573  -21.2846    0.2964  -21.2920    0.3051
  7.470  -21.2353    0.2666  -21.2671    0.2866  -21.2325    0.2805  -21.2435    0.2554  -21.2214    0.2944  -21.2287    0.3030
  7.480  -21.1722    0.2648  -21.2039    0.2847  -21.1695    0.2786  -21.1805    0.2536  -21.1585    0.2925  -21.1657    0.3010
  7.490  -21.1096    0.2630  -21.1412    0.2827  -21.1069    0.2767  -21.1178    0.2518  -21.0959    0.2905  -21.1031    0.2990
  7.500  -21.0473    0.2612  -21.0788    0.2808  -21.0446    0.2749  -21.0556    0.2499  -21.0338    0.2886  -21.0409    0.2970
  7.510  -20.9854    0.2594  -21.0168    0.2789  -20.9827    0.2730  -20.9937    0.2482  -20.9720    0.2868  -20.9791    0.2950
  7.520  -20.9238    0.2577  -20.9552    0.2770  -20.9212    0.2712  -20.9321    0.2464  -20.9106    0.2849  -20.9176    0.2931
  7.530  -20.8626    0.2559  -20.8939    0.2752  -20.8601    0.2695  -20.8709    0.2446  -20.8496    0.2830  -20.8565    0.2911
  7.540  -20.8018    0.2542  -20.8330    0.2733  -20.7993    0.2677  -20.8101    0.2429  -20.7889    0.2812  -20.7957    0.2892
  7.550  -20.7414    0.2526  -20.7725    0.2715  -20.7389    0.2660  -20.7497    0.2412  -20.7285    0.2794  -20.7353    0.2874
  7.560  -20.6812    0.2509  -20.7123    0.2697  -20.6788    0.2642  -20.6895    0.2395  -20.6686    0.2777  -20.6753    0.2855
  7.570  -20.6215    0.2493  -20.6525    0.2680  -20.6190    0.2626  -20.6298    0.2379  -20.6089    0.2759  -20.6156    0.2837
  7.580  -20.5620    0.2476  -20.5930    0.2662  -20.5596    0.2609  -20.5704    0.2362  -20.5496    0.2742  -20.5563    0.2819
  7.590  -20.5030    0.2460  -20.5339    0.2645  -20.5006    0.2592  -20.5113    0.2346  -20.4907    0.2725  -20.4972    0.2801
  7.600  -20.4442    0.2445  -20.4751    0.2628  -20.4419    0.2576  -20.4526    0.2330  -20.4321    0.2708  -20.4386    0.2784
  7.610  -20.3858    0.2429  -20.4166    0.2611  -20.3835    0.2560  -20.3942    0.2314  -20.3738    0.2691  -20.3802    0.2766
  7.620  -20.3277    0.2414  -20.3585    0.2595  -20.3254    0.2544  -20.3361    0.2298  -20.3159    0.2675  -20.3222    0.2749
  7.630  -20.2700    0.2398  -20.3007    0.2579  -20.2677    0.2528  -20.2783    0.2283  -20.2582    0.2659  -20.2645    0.2732
  7.640  -20.2125    0.2383  -20.2432    0.2562  -20.2103    0.2512  -20.2209    0.2268  -20.2009    0.2643  -20.2072    0.2715
  7.650  -20.1554    0.2369  -20.1861    0.2546  -20.1532    0.2497  -20.1638    0.2252  -20.1439    0.2627  -20.1501    0.2699
  7.660  -20.0986    0.2354  -20.1293    0.2531  -20.0964    0.2482  -20.1070    0.2238  -20.0873    0.2611  -20.0934    0.2683
  7.670  -20.0421    0.2339  -20.0728    0.2515  -20.0400    0.2467  -20.0505    0.2223  -20.0309    0.2596  -20.0370    0.2667
  7.680  -19.9860    0.2325  -20.0166    0.2499  -19.9838    0.2452  -19.9943    0.2208  -19.9749    0.2581  -19.9809    0.2651
  7.690  -19.9301    0.2311  -19.9607    0.2484  -19.9280    0.2437  -19.9385    0.2194  -19.9191    0.2566  -19.9251    0.2635
  7.700  -19.8745    0.2297  -19.9051    0.2469  -19.8724    0.2423  -19.8829    0.2179  -19.8637    0.2551  -19.8696    0.2620
  7.710  -19.8192    0.2283  -19.8498    0.2454  -19.8172    0.2408  -19.8277    0.2165  -19.8085    0.2536  -19.8144    0.2604
  7.720  -19.7643    0.2270  -19.7948    0.2439  -19.7622    0.2394  -19.7727    0.2151  -19.7537    0.2522  -19.7595    0.2589
  7.730  -19.7096    0.2256  -19.7402    0.2425  -19.7075    0.2380  -19.7180    0.2137  -19.6991    0.2507  -19.7049    0.2574
  7.740  -19.6552    0.2243  -19.6858    0.2410  -19.6532    0.2366  -19.6636    0.2124  -19.6448    0.2493  -19.6506    0.2559
  7.750  -19.6011    0.2230  -19.6317    0.2396  -19.5991    0.2353  -19.6095    0.2110  -19.5909    0.2479  -19.5966    0.2545
  7.760  -19.5473    0.2217  -19.5779    0.2382  -19.5453    0.2339  -19.5557    0.2097  -19.5372    0.2465  -19.5428    0.2530
  7.770  -19.4937    0.2204  -19.5243    0.2368  -19.4918    0.2326  -19.5022    0.2083  -19.4837    0.2452  -19.4894    0.2516
  7.780  -19.4404    0.2191  -19.4711    0.2355  -19.4385    0.2313  -19.4489    0.2070  -19.4306    0.2438  -19.4362    0.2502
  7.790  -19.3875    0.2179  -19.4181    0.2341  -19.3855    0.2300  -19.3959    0.2057  -19.3777    0.2425  -19.3833    0.2488
  7.800  -19.3347    0.2167  -19.3654    0.2328  -19.3328    0.2287  -19.3432    0.2044  -19.3251    0.2412  -19.3306    0.2475
  7.810  -19.2823    0.2154  -19.3130    0.2314  -19.2804    0.2274  -19.2908    0.2032  -19.2728    0.2399  -19.2782    0.2461
  7.820  -19.2301    0.2142  -19.2608    0.2301  -19.2282    0.2262  -19.2386    0.2019  -19.2208    0.2386  -19.2261    0.2448
  7.830  -19.1782    0.2130  -19.2090    0.2288  -19.1763    0.2249  -19.1867    0.2007  -19.1690    0.2373  -19.1743    0.2435
  7.840  -19.1265    0.2119  -19.1573    0.2275  -19.1247    0.2237  -19.1350    0.1994  -19.1174    0.2361  -19.1227    0.2422
  7.850  -19.0751    0.2107  -19.1060    0.2263  -19.0733    0.2225  -19.0837    0.1982  -19.0661    0.2348  -19.0714    0.2409
  7.860  -19.0239    0.2096  -19.0549    0.2250  -19.0222    0.2213  -19.0325    0.1970  -19.0151    0.2336  -19.0203    0.2396
  7.870  -18.9730    0.2084  -19.0040    0.2238  -18.9713    0.2201  -18.9816    0.1958  -18.9643    0.2324  -18.9695    0.2383
  7.880  -18.9224    0.2073  -18.9535    0.2226  -18.9206    0.2189  -18.9310    0.1946  -18.9138    0.2312  -18.9189    0.2371
  7.890  -18.8720    0.2062  -18.9031    0.2213  -18.8703    0.2177  -18.8806    0.1935  -18.8635    0.2301  -18.8686    0.2359
  7.900  -18.8218    0.2051  -18.8530    0.2201  -18.8201    0.2166  -18.8305    0.1923  -18.8135    0.2289  -18.8185    0.2347
  7.910  -18.7719    0.2040  -18.8032    0.2190  -18.7702    0.2155  -18.7806    0.1912  -18.7637    0.2278  -18.7687    0.2335
  7.920  -18.7222    0.2030  -18.7536    0.2178  -18.7205    0.2143  -18.7309    0.1900  -18.7141    0.2266  -18.7191    0.2323
  7.930  -18.6728    0.2019  -18.7042    0.2166  -18.6711    0.2132  -18.6815    0.1889  -18.6648    0.2255  -18.6698    0.2312
  7.940  -18.6236    0.2009  -18.6551    0.2155  -18.6219    0.2121  -18.6323    0.1878  -18.6157    0.2244  -18.6206    0.2300
  7.950  -18.5746    0.1999  -18.6062    0.2144  -18.5730    0.2111  -18.5833    0.1867  -18.5669    0.2233  -18.5718    0.2289
  7.960  -18.5258    0.1988  -18.5576    0.2133  -18.5242    0.2100  -18.5346    0.1856  -18.5183    0.2223  -18.5231    0.2278
  7.970  -18.4773    0.1978  -18.5092    0.2121  -18.4757    0.2090  -18.4861    0.1845  -18.4699    0.2212  -18.4747    0.2267
  7.980  -18.4290    0.1969  -18.4610    0.2111  -18.4274    0.2079  -18.4378    0.1834  -18.4217    0.2202  -18.4265    0.2256
  7.990  -18.3809    0.1959  -18.4130    0.2100  -18.3794    0.2069  -18.3897    0.1824  -18.3737    0.2191  -18.3785    0.2245
  8.000  -18.3331    0.1949  -18.3653    0.2089  -18.3315    0.2059  -18.3419    0.1813  -18.3260    0.2181  -18.3307    0.2234
  8.010  -18.2854    0.1940  -18.3177    0.2079  -18.2839    0.2049  -18.2943    0.1803  -18.2785    0.2171  -18.2832    0.2224
  8.020  -18.2380    0.1930  -18.2704    0.2068  -18.2365    0.2039  -18.2469    0.1793  -18.2312    0.2161  -18.2358    0.2214
  8.030  -18.1908    0.1921  -18.2234    0.2058  -18.1893    0.2029  -18.1997    0.1783  -18.1841    0.2152  -18.1887    0.2204
  8.040  -18.1438    0.1912  -18.1765    0.2048  -18.1423    0.2019  -18.1527    0.1772  -18.1372    0.2142  -18.1418    0.2194
  8.050  -18.0970    0.1903  -18.1298    0.2038  -18.0955    0.2010  -18.1059    0.1762  -18.0906    0.2133  -18.0951    0.2184
  8.060  -18.0504    0.1894  -18.0834    0.2028  -18.0489    0.2000  -18.0593    0.1753  -18.0441    0.2123  -18.0486    0.2174
  8.070  -18.0040    0.1885  -18.0371    0.2018  -18.0025    0.1991  -18.0130    0.1743  -17.9978    0.2114  -18.0023    0.2165
  8.080  -17.9578    0.1877  -17.9911    0.2008  -17.9563    0.1982  -17.9668    0.1733  -17.9518    0.2105  -17.9562    0.2155
  8.090  -17.9118    0.1868  -17.9453    0.1999  -17.9103    0.1973  -17.9208    0.1723  -17.9059    0.2096  -17.9103    0.2146
  8.100  -17.8659    0.1860  -17.8997    0.1989  -17.8645    0.1964  -17.8750    0.1714  -17.8602    0.2087  -17.8646    0.2137
  8.110  -17.8203    0.1852  -17.8542    0.1980  -17.8189    0.1955  -17.8295    0.1704  -17.8148    0.2079  -17.8191    0.2128
  8.120  -17.7749    0.1844  -17.8090    0.1971  -17.7735    0.1946  -17.7841    0.1695  -17.7695    0.2070  -17.7738    0.2119
  8.130  -17.7297    0.1835  -17.7640    0.1962  -17.7283    0.1938  -17.7389    0.1686  -17.7244    0.2062  -17.7286    0.2110
  8.140  -17.6846    0.1828  -17.7191    0.1953  -17.6832    0.1929  -17.6938    0.1677  -17.6795    0.2054  -17.6837    0.2101
  8.150  -17.6397    0.1820  -17.6745    0.1944  -17.6384    0.1921  -17.6490    0.1668  -17.6347    0.2046  -17.6390    0.2093
  8.160  -17.5951    0.1812  -17.6300    0.1935  -17.5937    0.1913  -17.6044    0.1659  -17.5902    0.2038  -17.5944    0.2085
  8.170  -17.5506    0.1805  -17.5857    0.1926  -17.5492    0.1905  -17.5599    0.1650  -17.5458    0.2030  -17.5500    0.2077
  8.180  -17.5062    0.1797  -17.5416    0.1918  -17.5049    0.1897  -17.5156    0.1641  -17.5017    0.2022  -17.5058    0.2069
  8.190  -17.4621    0.1790  -17.4977    0.1909  -17.4607    0.1889  -17.4715    0.1632  -17.4576    0.2015  -17.4617    0.2061
  8.200  -17.4181    0.1783  -17.4540    0.1901  -17.4167    0.1881  -17.4275    0.1623  -17.4138    0.2007  -17.4179    0.2053
  8.210  -17.3742    0.1776  -17.4104    0.1893  -17.3729    0.1874  -17.3837    0.1615  -17.3701    0.2000  -17.3742    0.2045
  8.220  -17.3306    0.1769  -17.3670    0.1885  -17.3293    0.1866  -17.3401    0.1606  -17.3266    0.1993  -17.3307    0.2038
  8.230  -17.2871    0.1762  -17.3238    0.1877  -17.2858    0.1859  -17.2967    0.1598  -17.2833    0.1986  -17.2873    0.2031
  8.240  -17.2438    0.1755  -17.2808    0.1869  -17.2425    0.1851  -17.2534    0.1590  -17.2401    0.1979  -17.2441    0.2024
  8.250  -17.2006    0.1749  -17.2379    0.1861  -17.1993    0.1844  -17.2103    0.1581  -17.1971    0.1973  -17.2011    0.2017
  8.260  -17.1576    0.1742  -17.1952    0.1854  -17.1563    0.1837  -17.1673    0.1573  -17.1543    0.1966  -17.1582    0.2010
  8.270  -17.1147    0.1736  -17.1527    0.1846  -17.1135    0.1830  -17.1245    0.1565  -17.1116    0.1960  -17.1155    0.2003
  8.280  -17.0720    0.1730  -17.1103    0.1839  -17.0708    0.1824  -17.0819    0.1557  -17.0691    0.1953  -17.0729    0.1996
  8.290  -17.0295    0.1724  -17.0681    0.1831  -17.0282    0.1817  -17.0394    0.1549  -17.0267    0.1947  -17.0305    0.1990
  8.300  -16.9871    0.1718  -17.0260    0.1824  -16.9858    0.1810  -16.9970    0.1541  -16.9845    0.1941  -16.9883    0.1984
  8.310  -16.9448    0.1712  -16.9841    0.1817  -16.9436    0.1804  -16.9548    0.1533  -16.9424    0.1936  -16.9462    0.1978
  8.320  -16.9027    0.1706  -16.9424    0.1810  -16.9015    0.1798  -16.9128    0.1525  -16.9004    0.1930  -16.9042    0.1972
  8.330  -16.8607    0.1701  -16.9008    0.1803  -16.8595    0.1791  -16.8708    0.1518  -16.8586    0.1924  -16.8624    0.1966
  8.340  -16.8189    0.1695  -16.8593    0.1797  -16.8176    0.1785  -16.8291    0.1510  -16.8170    0.1919  -16.8207    0.1960
  8.350  -16.7772    0.1690  -16.8180    0.1790  -16.7759    0.1779  -16.7874    0.1503  -16.7755    0.1914  -16.7792    0.1955
  8.360  -16.7356    0.1685  -16.7769    0.1784  -16.7344    0.1774  -16.7459    0.1495  -16.7341    0.1909  -16.7377    0.1950
  8.370  -16.6941    0.1680  -16.7359    0.1777  -16.6929    0.1768  -16.7045    0.1488  -16.6928    0.1904  -16.6965    0.1944
  8.380  -16.6528    0.1675  -16.6950    0.1771  -16.6516    0.1763  -16.6633    0.1480  -16.6517    0.1899  -16.6553    0.1940
  8.390  -16.6116    0.1670  -16.6543    0.1765  -16.6104    0.1757  -16.6222    0.1473  -16.6107    0.1895  -16.6143    0.1935
  8.400  -16.5706    0.1666  -16.6137    0.1759  -16.5694    0.1752  -16.5812    0.1466  -16.5698    0.1891  -16.5734    0.1930
  8.410  -16.5296    0.1661  -16.5732    0.1753  -16.5284    0.1747  -16.5403    0.1459  -16.5291    0.1887  -16.5327    0.1926
  8.420  -16.4888    0.1657  -16.5329    0.1747  -16.4876    0.1742  -16.4995    0.1452  -16.4885    0.1883  -16.4920    0.1922
  8.430  -16.4480    0.1653  -16.4927    0.1741  -16.4468    0.1737  -16.4589    0.1444  -16.4480    0.1879  -16.4515    0.1917
  8.440  -16.4074    0.1649  -16.4526    0.1736  -16.4062    0.1732  -16.4183    0.1438  -16.4076    0.1875  -16.4111    0.1914
  8.450  -16.3669    0.1645  -16.4127    0.1730  -16.3657    0.1728  -16.3779    0.1431  -16.3673    0.1872  -16.3708    0.1910
  8.460  -16.3265    0.1642  -16.3729    0.1725  -16.3253    0.1724  -16.3376    0.1424  -16.3271    0.1869  -16.3306    0.1906
  8.470  -16.2862    0.1638  -16.3332    0.1720  -16.2850    0.1719  -16.2974    0.1417  -16.2871    0.1866  -16.2905    0.1903
  8.480  -16.2460    0.1635  -16.2936    0.1715  -16.2448    0.1715  -16.2573    0.1410  -16.2471    0.1863  -16.2505    0.1900
  8.490  -16.2059    0.1632  -16.2541    0.1710  -16.2047    0.1711  -16.2173    0.1404  -16.2072    0.1860  -16.2106    0.1897
  8.500  -16.1659    0.1629  -16.2147    0.1705  -16.1647    0.1708  -16.1773    0.1397  -16.1675    0.1858  -16.1708    0.1895
  8.510  -16.1259    0.1626  -16.1755    0.1701  -16.1247    0.1704  -16.1375    0.1391  -16.1278    0.1856  -16.1312    0.1892
  8.520  -16.0861    0.1624  -16.1363    0.1696  -16.0849    0.1701  -16.0978    0.1384  -16.0882    0.1854  -16.0915    0.1890
  8.530  -16.0463    0.1621  -16.0973    0.1692  -16.0451    0.1698  -16.0581    0.1378  -16.0487    0.1852  -16.0520    0.1888
  8.540  -16.0066    0.1619  -16.0584    0.1687  -16.0054    0.1695  -16.0185    0.1372  -16.0093    0.1851  -16.0126    0.1887
  8.550  -15.9670    0.1617  -16.0195    0.1683  -15.9658    0.1692  -15.9790    0.1365  -15.9700    0.1850  -15.9733    0.1885
  8.560  -15.9275    0.1616  -15.9808    0.1679  -15.9262    0.1689  -15.9396    0.1359  -15.9307    0.1849  -15.9340    0.1884
  8.570  -15.8880    0.1614  -15.9421    0.1676  -15.8867    0.1687  -15.9002    0.1353  -15.8915    0.1848  -15.8948    0.1883
  8.580  -15.8485    0.1613  -15.9036    0.1672  -15.8473    0.1684  -15.8609    0.1347  -15.8524    0.1848  -15.8557    0.1883
  8.590  -15.8092    0.1612  -15.8651    0.1669  -15.8079    0.1682  -15.8217    0.1341  -15.8134    0.1848  -15.8166    0.1882
  8.600  -15.7699    0.1611  -15.8267    0.1665  -15.7686    0.1681  -15.7825    0.1335  -15.7744    0.1848  -15.7776    0.1882
  8.610  -15.7306    0.1610  -15.7884    0.1662  -15.7293    0.1679  -15.7434    0.1329  -15.7355    0.1848  -15.7387    0.1883
  8.620  -15.6914    0.1610  -15.7502    0.1659  -15.6901    0.1678  -15.7043    0.1323  -15.6966    0.1849  -15.6998    0.1883
  8.630  -15.6522    0.1610  -15.7120    0.1657  -15.6509    0.1677  -15.6652    0.1318  -15.6578    0.1850  -15.6609    0.1884
  8.640  -15.6130    0.1610  -15.6740    0.1654  -15.6117    0.1676  -15.6262    0.1312  -15.6190    0.1852  -15.6221    0.1885
  8.650  -15.5739    0.1611  -15.6359    0.1652  -15.5725    0.1675  -15.5873    0.1306  -15.5803    0.1854  -15.5834    0.1887
  8.660  -15.5348    0.1612  -15.5980    0.1649  -15.5334    0.1675  -15.5483    0.1301  -15.5416    0.1856  -15.5447    0.1889
  8.670  -15.4957    0.1613  -15.5601    0.1647  -15.4943    0.1675  -15.5094    0.1295  -15.5029    0.1859  -15.5060    0.1892
  8.680  -15.4567    0.1615  -15.5223    0.1646  -15.4552    0.1675  -15.4705    0.1290  -15.4642    0.1862  -15.4673    0.1894
  8.690  -15.4176    0.1617  -15.4845    0.1644  -15.4161    0.1676  -15.4316    0.1284  -15.4256    0.1865  -15.4287    0.1898
  8.700  -15.3785    0.1619  -15.4468    0.1643  -15.3770    0.1677  -15.3927    0.1279  -15.3870    0.1869  -15.3900    0.1901
  8.710  -15.3394    0.1622  -15.4091    0.1642  -15.3379    0.1678  -15.3538    0.1274  -15.3484    0.1873  -15.3514    0.1906
  8.720  -15.3003    0.1625  -15.3714    0.1641  -15.2988    0.1679  -15.3149    0.1269  -15.3098    0.1878  -15.3128    0.1910
  8.730  -15.2612    0.1628  -15.3338    0.1640  -15.2596    0.1681  -15.2760    0.1264  -15.2712    0.1884  -15.2741    0.1915
  8.740  -15.2221    0.1632  -15.2962    0.1640  -15.2205    0.1684  -15.2370    0.1259  -15.2325    0.1890  -15.2355    0.1921
  8.750  -15.1829    0.1637  -15.2587    0.1639  -15.1812    0.1686  -15.1981    0.1254  -15.1939    0.1896  -15.1969    0.1927
  8.760  -15.1437    0.1641  -15.2212    0.1640  -15.1420    0.1689  -15.1590    0.1249  -15.1552    0.1903  -15.1582    0.1934
  8.770  -15.1044    0.1647  -15.1837    0.1640  -15.1026    0.1693  -15.1200    0.1244  -15.1165    0.1911  -15.1195    0.1942
  8.780  -15.0650    0.1653  -15.1461    0.1641  -15.0632    0.1697  -15.0808    0.1240  -15.0778    0.1919  -15.0807    0.1950
  8.790  -15.0256    0.1659  -15.1086    0.1642  -15.0237    0.1702  -15.0416    0.1235  -15.0390    0.1928  -15.0419    0.1959
  8.800  -14.9861    0.1667  -15.0712    0.1643  -14.9842    0.1707  -15.0024    0.1231  -15.0002    0.1938  -15.0030    0.1968
  8.810  -14.9465    0.1675  -15.0336    0.1645  -14.9445    0.1712  -14.9630    0.1226  -14.9612    0.1948  -14.9641    0.1979
  8.820  -14.9068    0.1683  -14.9961    0.1647  -14.9047    0.1718  -14.9236    0.1222  -14.9222    0.1960  -14.9251    0.1990
  8.830  -14.8670    0.1692  -14.9586    0.1649  -14.8648    0.1725  -14.8840    0.1218  -14.8832    0.1972  -14.8860    0.2002
  8.840  -14.8270    0.1702  -14.9210    0.1652  -14.8248    0.1733  -14.8443    0.1214  -14.8440    0.1985  -14.8468    0.2015
  8.850  -14.7869    0.1713  -14.8834    0.1655  -14.7846    0.1741  -14.8044    0.1210  -14.8047    0.1999  -14.8075    0.2029
  8.860  -14.7466    0.1725  -14.8458    0.1659  -14.7442    0.1750  -14.7645    0.1206  -14.7653    0.2014  -14.7681    0.2044
  8.870  -14.7062    0.1738  -14.8081    0.1663  -14.7036    0.1759  -14.7243    0.1202  -14.7257    0.2031  -14.7285    0.2060
  8.880  -14.6656    0.1751  -14.7703    0.1667  -14.6629    0.1770  -14.6840    0.1199  -14.6860    0.2048  -14.6888    0.2077
  8.890  -14.6247    0.1766  -14.7325    0.1672  -14.6219    0.1781  -14.6434    0.1195  -14.6462    0.2067  -14.6490    0.2096
  8.900  -14.5837    0.1782  -14.6946    0.1678  -14.5807    0.1794  -14.6026    0.1192  -14.6061    0.2087  -14.6089    0.2116
  8.910  -14.5423    0.1799  -14.6567    0.1684  -14.5392    0.1807  -14.5616    0.1189  -14.5659    0.2108  -14.5687    0.2137
  8.920  -14.5008    0.1818  -14.6186    0.1690  -14.4975    0.1821  -14.5204    0.1186  -14.5255    0.2131  -14.5282    0.2160
  8.930  -14.4589    0.1838  -14.5804    0.1698  -14.4554    0.1837  -14.4788    0.1183  -14.4848    0.2156  -14.4875    0.2184
  8.940  -14.4167    0.1859  -14.5421    0.1706  -14.4130    0.1854  -14.4369    0.1181  -14.4439    0.2183  -14.4466    0.2211
  8.950  -14.3742    0.1883  -14.5037    0.1714  -14.3703    0.1872  -14.3947    0.1178  -14.4027    0.2211  -14.4054    0.2239
  8.960  -14.3313    0.1908  -14.4651    0.1724  -14.3271    0.1891  -14.3522    0.1176  -14.3612    0.2241  -14.3639    0.2269
  8.970  -14.2880    0.1935  -14.4264    0.1734  -14.2835    0.1913  -14.3092    0.1174  -14.3194    0.2274  -14.3221    0.2302
  8.980  -14.2442    0.1964  -14.3875    0.1745  -14.2395    0.1936  -14.2658    0.1173  -14.2772    0.2309  -14.2799    0.2336
  8.990  -14.2001    0.1995  -14.3484    0.1756  -14.1950    0.1960  -14.2219    0.1171  -14.2347    0.2347  -14.2374    0.2374
  9.000  -14.1554    0.2029  -14.3091    0.1769  -14.1499    0.1987  -14.1775    0.1170  -14.1918    0.2387  -14.1945    0.2414
  9.010  -14.1101    0.2066  -14.2696    0.1783  -14.1043    0.2016  -14.1326    0.1170  -14.1484    0.2431  -14.1511    0.2458
  9.020  -14.0643    0.2105  -14.2298    0.1798  -14.0580    0.2047  -14.0870    0.1169  -14.1046    0.2478  -14.1073    0.2504
  9.030  -14.0178    0.2148  -14.1898    0.1814  -14.0110    0.2081  -14.0408    0.1169  -14.0603    0.2528  -14.0629    0.2555
  9.040  -13.9707    0.2195  -14.1495    0.1831  -13.9633    0.2118  -13.9939    0.1170  -14.0154    0.2583  -14.0180    0.2609
  9.050  -13.9228    0.2245  -14.1089    0.1849  -13.9147    0.2158  -13.9462    0.1171  -13.9700    0.2642  -13.9726    0.2668
  9.060  -13.8740    0.2300  -14.0680    0.1869  -13.8653    0.2201  -13.8977    0.1173  -13.9239    0.2705  -13.9265    0.2732
  9.070  -13.8245    0.2360  -14.0268    0.1891  -13.8149    0.2249  -13.8482    0.1175  -13.8771    0.2774  -13.8797    0.2801
  9.080  -13.7739    0.2425  -13.9851    0.1914  -13.7634    0.2300  -13.7977    0.1178  -13.8296    0.2849  -13.8321    0.2875
  9.090  -13.7224    0.2497  -13.9430    0.1939  -13.7108    0.2356  -13.7461    0.1182  -13.7812    0.2931  -13.7838    0.2957
  9.100  -13.6697    0.2574  -13.9005    0.1965  -13.6570    0.2417  -13.6933    0.1187  -13.7320    0.3019  -13.7346    0.3045
  9.110  -13.6158    0.2660  -13.8576    0.1994  -13.6018    0.2484  -13.6392    0.1193  -13.6819    0.3116  -13.6845    0.3141
  9.120  -13.5606    0.2753  -13.8141    0.2025  -13.5450    0.2558  -13.5835    0.1201  -13.6307    0.3221  -13.6333    0.3247
  9.130  -13.5039    0.2856  -13.7700    0.2059  -13.4866    0.2639  -13.5263    0.1209  -13.5785    0.3337  -13.5810    0.3362
  9.140  -13.4457    0.2970  -13.7254    0.2095  -13.4263    0.2728  -13.4672    0.1220  -13.5251    0.3463  -13.5276    0.3489
  9.150  -13.3857    0.3095  -13.6801    0.2134  -13.3640    0.2826  -13.4062    0.1232  -13.4703    0.3602  -13.4729    0.3628
  9.160  -13.3239    0.3235  -13.6341    0.2177  -13.2995    0.2935  -13.3429    0.1247  -13.4142    0.3756  -13.4167    0.3781
  9.170  -13.2600    0.3389  -13.5874    0.2222  -13.2325    0.3057  -13.2771    0.1265  -13.3566    0.3925  -13.3591    0.3950
  9.180  -13.1939    0.3562  -13.5398    0.2272  -13.1626    0.3192  -13.2086    0.1285  -13.2973    0.4113  -13.2998    0.4138
  9.190  -13.1254    0.3755  -13.4914    0.2325  -13.0897    0.3343  -13.1369    0.1310  -13.2362    0.4322  -13.2387    0.4346
  9.200  -13.0541    0.3971  -13.4421    0.2383  -13.0133    0.3513  -13.0618    0.1339  -13.1733    0.4554  -13.1758    0.4579
  9.210  -12.9799    0.4214  -13.3918    0.2446  -12.9329    0.3705  -12.9826    0.1373  -13.1083    0.4815  -13.1108    0.4839
  9.220  -12.9025    0.4490  -13.3404    0.2514  -12.8481    0.3922  -12.8989    0.1414  -13.0411    0.5107  -13.0435    0.5131
  9.230  -12.8216    0.4802  -13.2877    0.2587  -12.7582    0.4169  -12.8099    0.1463  -12.9715    0.5436  -12.9739    0.5461
  9.240  -12.7368    0.5157  -13.2338    0.2666  -12.6626    0.4453  -12.7148    0.1522  -12.8993    0.5809  -12.9018    0.5833
  9.250  -12.6477    0.5564  -13.1784    0.2752  -12.5604    0.4780  -12.6128    0.1594  -12.8246    0.6232  -12.8270    0.6257
  9.260  -12.5541    0.6032  -13.1215    0.2845  -12.4506    0.5160  -12.5025    0.1682  -12.7470    0.6716  -12.7494    0.6740
  9.270  -12.4556    0.6572  -13.0629    0.2947  -12.3319    0.5605  -12.3826    0.1792  -12.6667    0.7270  -12.6691    0.7294
  9.280  -12.3518    0.7199  -13.0025    0.3057  -12.2030    0.6129  -12.2512    0.1930  -12.5836    0.7908  -12.5860    0.7933
  9.290  -12.2425    0.7930  -12.9402    0.3176  -12.0621    0.6754  -12.1062    0.2104  -12.4980    0.8648  -12.5003    0.8672
  9.300  -12.1274    0.8786  -12.8757    0.3305  -11.9070    0.7508  -11.9445    0.2328  -12.4103    0.9507  -12.4126    0.9532
  9.310  -12.0067    0.9795  -12.8088    0.3442  -11.7351    0.8426  -11.7625    0.2621  -12.3212    1.0512  -12.3235    1.0537
  9.320  -11.8806    1.0986  -12.7394    0.3588  -11.5430    0.9563  -11.5554    0.3009  -12.2323    1.1691  -12.2345    1.1716
  9.330  -11.7498    1.2400  -12.6672    0.3740  -11.3270    1.0992  -11.3167    0.3535  -12.1456    1.3080  -12.1477    1.3105
  9.340  -11.6158    1.4081  -12.5917    0.3894  -11.0823    1.2824  -11.0378    0.4265  -12.0645    1.4719  -12.0666    1.4745
  9.350  -11.4805    1.6085  -12.5124    0.4044  -10.8039    1.5222  -10.7074    0.5304  -11.9942    1.6655  -11.9962    1.6683
  9.360  -11.3469    1.8479  -12.4284    0.4175  -10.4869    1.8441  -10.3100    0.6833  -11.9425    1.8939  -11.9444    1.8969
  9.370  -11.2186    2.1346  -12.3379    0.4267  -10.1301    2.2889   -9.8257    0.9163  -11.9209    2.1623  -11.9226    2.1655
  9.380  -11.0999    2.4812  -12.2371    0.4283   -9.7436    2.9229   -9.2317    1.2860  -11.9463    2.4752  -11.9479    2.4789
  9.390  -10.9971    2.9106  -12.1180    0.4165   -9.3735    3.8544   -8.5128    1.8987  -12.0453    2.8349  -12.0470    2.8394
  9.400  -10.9306    3.4684  -11.9619    0.3852   -9.1682    5.2461   -7.7077    2.9508  -12.2624    3.2360  -12.2643    3.2416
  9.410  -10.9811    4.2335  -11.7278    0.3387   -9.5400    7.2510   -7.0634    4.7567  -12.6734    3.6395  -12.6763    3.6465
  9.420  -11.4011    5.2402  -11.3523    0.3360  -11.3456    9.5759   -7.3819    7.4968  -13.3633    3.8934  -13.3687    3.9017
  9.430  -12.5507    6.1183  -10.8521    0.5423  -15.0674   10.5549   -9.8273   10.1148  -14.2069    3.6871  -14.2162    3.6945
  9.440  -14.1010    6.1279  -10.4642    1.0274  -18.5961    8.6147  -13.5202   10.3980  -14.6977    3.0096  -14.7093    3.0135
  9.450  -15.1847    5.4026  -10.3171    1.5732  -19.7691    5.5376  -15.9522    8.6980  -14.6784    2.3698  -14.6895    2.3700
  9.460  -15.6855    4.5813  -10.2869    2.0538  -19.3614    3.2293  -16.8253    6.8521  -14.4538    1.9940  -14.4634    1.9921
  9.470  -15.8688    3.9075  -10.2846    2.5074  -18.4993    1.8453  -16.9441    5.5108  -14.2088    1.8121  -14.2169    1.8091
  9.480  -15.9116    3.3873  -10.3054    2.9900  -17.6309    1.0609  -16.8189    4.6286  -13.9870    1.7508  -13.9938    1.7471
  9.490  -15.8960    2.9837  -10.3835    3.5354  -16.8653    0.6313  -16.6605    4.0544  -13.7977    1.7787  -13.8034    1.7747
  9.500  -15.8610    2.6633  -10.5740    4.1506  -16.2127    0.4234  -16.5490    3.6692  -13.6544    1.8843  -13.6590    1.8799
  9.510  -15.8263    2.3979  -10.9445    4.8070  -15.6674    0.3687  -16.5137    3.3809  -13.5813    2.0554  -13.5848    2.0508
  9.520  -15.7993    2.1627  -11.5537    5.4245  -15.2314    0.4273  -16.5513    3.1161  -13.6079    2.2650  -13.6104    2.2605
  9.530  -15.7762    1.9370  -12.4094    5.8729  -14.9156    0.5623  -16.6317    2.8189  -13.7535    2.4632  -13.7549    2.4588
  9.540  -15.7437    1.7094  -13.4239    6.0163  -14.7259    0.7267  -16.7022    2.4623  -14.0037    2.5862  -14.0041    2.5822
  9.550  -15.6869    1.4825  -14.4251    5.7970  -14.6465    0.8698  -16.7092    2.0613  -14.3039    2.5878  -14.3035    2.5845
  9.560  -15.5993    1.2688  -15.2421    5.2808  -14.6390    0.9574  -16.6273    1.6605  -14.5832    2.4670  -14.5822    2.4645
  9.570  -15.4861    1.0809  -15.7912    4.6099  -14.6598    0.9829  -16.4678    1.3038  -14.7921    2.2622  -14.7908    2.2605
  9.580  -15.3582    0.9246  -16.0849    3.9184  -14.6780    0.9602  -16.2611    1.0135  -14.9167    2.0221  -14.9153    2.0211
  9.590  -15.2261    0.7986  -16.1851    3.2883  -14.6798    0.9085  -16.0371    0.7902  -14.9681    1.7832  -14.9668    1.7829
  9.600  -15.0967    0.6983  -16.1588    2.7512  -14.6629    0.8437  -15.8157    0.6238  -14.9657    1.5653  -14.9645    1.5655
  9.610  -14.9738    0.6183  -16.0586    2.3092  -14.6301    0.7761  -15.6074    0.5013  -14.9278    1.3752  -14.9268    1.3758
  9.620  -14.8585    0.5538  -15.9200    1.9513  -14.5856    0.7110  -15.4164    0.4110  -14.8683    1.2132  -14.8675    1.2141
  9.630  -14.7513    0.5012  -15.7648    1.6628  -14.5333    0.6512  -15.2431    0.3441  -14.7967    1.0765  -14.7962    1.0776
  9.640  -14.6515    0.4577  -15.6057    1.4300  -14.4762    0.5973  -15.0865    0.2939  -14.7192    0.9613  -14.7188    0.9626
  9.650  -14.5586    0.4212  -15.4495    1.2410  -14.4165    0.5494  -14.9448    0.2558  -14.6394    0.8641  -14.6392    0.8655
  9.660  -14.4718    0.3902  -15.2999    1.0867  -14.3557    0.5071  -14.8162    0.2265  -14.5598    0.7817  -14.5597    0.7831
  9.670  -14.3905    0.3635  -15.1585    0.9596  -14.2949    0.4698  -14.6989    0.2036  -14.4817    0.7114  -14.4817    0.7130
  9.680  -14.3140    0.3404  -15.0258    0.8541  -14.2346    0.4368  -14.5913    0.1855  -14.4058    0.6512  -14.4059    0.6528
  9.690  -14.2418    0.3202  -14.9016    0.7658  -14.1755    0.4077  -14.4923    0.1710  -14.3324    0.5992  -14.3326    0.6008
  9.700  -14.1734    0.3024  -14.7855    0.6913  -14.1176    0.3819  -14.4006    0.1592  -14.2618    0.5540  -14.2621    0.5557
  9.710  -14.1084    0.2866  -14.6770    0.6280  -14.0611    0.3589  -14.3152    0.1496  -14.1939    0.5146  -14.1943    0.5163
  9.720  -14.0465    0.2724  -14.5753    0.5739  -14.0062    0.3384  -14.2354    0.1415  -14.1286    0.4800  -14.1291    0.4817
  9.730  -13.9873    0.2598  -14.4800    0.5272  -13.9527    0.3201  -14.1604    0.1348  -14.0659    0.4494  -14.0665    0.4511
  9.740  -13.9306    0.2483  -14.3903    0.4867  -13.9008    0.3036  -14.0898    0.1291  -14.0057    0.4223  -14.0062    0.4240
  9.750  -13.8761    0.2379  -14.3058    0.4515  -13.8502    0.2887  -14.0229    0.1242  -13.9476    0.3981  -13.9483    0.3998
  9.760  -13.8236    0.2285  -14.2260    0.4205  -13.8011    0.2753  -13.9594    0.1200  -13.8917    0.3764  -13.8924    0.3782
  9.770  -13.7730    0.2198  -14.1505    0.3933  -13.7534    0.2631  -13.8990    0.1164  -13.8378    0.3570  -13.8385    0.3587
  9.780  -13.7242    0.2119  -14.0787    0.3691  -13.7069    0.2521  -13.8412    0.1132  -13.7857    0.3394  -13.7864    0.3411
  9.790  -13.6768    0.2046  -14.0105    0.3476  -13.6616    0.2419  -13.7859    0.1104  -13.7353    0.3235  -13.7360    0.3252
  9.800  -13.6309    0.1979  -13.9454    0.3284  -13.6174    0.2327  -13.7328    0.1079  -13.6864    0.3090  -13.6872    0.3107
  9.810  -13.5864    0.1917  -13.8831    0.3112  -13.5743    0.2242  -13.6817    0.1057  -13.6391    0.2958  -13.6399    0.2975
  9.820  -13.5430    0.1860  -13.8235    0.2957  -13.5323    0.2164  -13.6325    0.1037  -13.5931    0.2837  -13.5940    0.2854
  9.830  -13.5008    0.1807  -13.7663    0.2817  -13.4912    0.2092  -13.5849    0.1018  -13.5485    0.2726  -13.5493    0.2743
  9.840  -13.4597    0.1757  -13.7113    0.2690  -13.4510    0.2025  -13.5388    0.1002  -13.5050    0.2624  -13.5059    0.2642
  9.850  -13.4195    0.1710  -13.6583    0.2575  -13.4117    0.1964  -13.4941    0.0987  -13.4626    0.2531  -13.4635    0.2548
  9.860  -13.3803    0.1667  -13.6072    0.2469  -13.3732    0.1906  -13.4508    0.0973  -13.4213    0.2444  -13.4222    0.2461
  9.870  -13.3419    0.1626  -13.5578    0.2373  -13.3355    0.1853  -13.4086    0.0960  -13.3810    0.2363  -13.3819    0.2380
  9.880  -13.3043    0.1588  -13.5100    0.2285  -13.2985    0.1803  -13.3675    0.0948  -13.3416    0.2289  -13.3425    0.2306
  9.890  -13.2675    0.1552  -13.4636    0.2203  -13.2623    0.1757  -13.3275    0.0937  -13.3030    0.2219  -13.3040    0.2236
  9.900  -13.2315    0.1519  -13.4186    0.2128  -13.2266    0.1714  -13.2884    0.0927  -13.2653    0.2154  -13.2663    0.2171
  9.910  -13.1960    0.1487  -13.3749    0.2059  -13.1916    0.1673  -13.2502    0.0917  -13.2283    0.2094  -13.2293    0.2111
  9.920  -13.1613    0.1457  -13.3323    0.1995  -13.1572    0.1635  -13.2128    0.0908  -13.1921    0.2037  -13.1931    0.2054
  9.930  -13.1271    0.1428  -13.2908    0.1935  -13.1234    0.1599  -13.1763    0.0900  -13.1565    0.1984  -13.1575    0.2001
  9.940  -13.0935    0.1401  -13.2504    0.1880  -13.0901    0.1565  -13.1404    0.0892  -13.1216    0.1934  -13.1226    0.1951
  9.950  -13.0604    0.1376  -13.2109    0.1828  -13.0573    0.1533  -13.1053    0.0884  -13.0873    0.1887  -13.0883    0.1904
  9.960  -13.0279    0.1352  -13.1723    0.1780  -13.0249    0.1503  -13.0708    0.0877  -13.0536    0.1843  -13.0546    0.1860
  9.970  -12.9958    0.1329  -13.1346    0.1735  -12.9931    0.1474  -13.0369    0.0870  -13.0204    0.1802  -13.0214    0.1818
  9.980  -12.9643    0.1307  -13.0976    0.1692  -12.9617    0.1447  -13.0036    0.0863  -12.9878    0.1762  -12.9888    0.1779
  9.990  -12.9331    0.1286  -13.0614    0.1653  -12.9307    0.1422  -12.9709    0.0857  -12.9556    0.1725  -12.9566    0.1741
 10.000  -12.9024    0.1266  -13.0260    0.1615  -12.9002    0.1397  -12.9387    0.0851  -12.9239    0.1690  -12.9250    0.1706
