# Macroscopic dielectric function obtained with the BS equation.
#  RPA L0 with KS energies and KS wavefunctions     LOCAL FIELD EFFECTS INCLUDED
# RESONANT-ONLY calculation
# Coulomb term constructed with full W(G1,G2)
# Scissor operator energy =  0.8000 [eV]
# Tolerance = -0.0010 0.0000
# npweps  = 113
# npwwfn  = 259
# nbands  = 8
# loband  = 2
# nkibz   = 3
# nkbz    = 8
# Lorentzian broadening =  0.0001 [eV]
# List of q-points for the optical limit:
# q =  0.938821, 0.000000, 0.000000, [Reduced coords] 
# q =  0.000000, 0.938821, 0.000000, [Reduced coords] 
# q =  0.000000, 0.000000, 0.938821, [Reduced coords] 
# q =  0.000000, 0.813043, 0.813043, [Reduced coords] 
# q =  0.813043, 0.000000, 0.813043, [Reduced coords] 
# q =  0.813043, 0.813043, 0.000000, [Reduced coords] 
# omega [eV]    RE(eps(q=1)) IM(eps(q=1) RE(eps(q=2) ) ... 
  0.000   54.7806    0.0000   54.7668    0.0000   54.7769    0.0000   54.7706    0.0000   54.8146    0.0000   54.8126    0.0000
  0.010   54.7812    0.0032   54.7674    0.0034   54.7774    0.0034   54.7711    0.0032   54.8151    0.0036   54.8131    0.0036
  0.020   54.7828    0.0064   54.7690    0.0069   54.7790    0.0069   54.7727    0.0064   54.8167    0.0072   54.8147    0.0072
  0.030   54.7854    0.0096   54.7716    0.0103   54.7817    0.0103   54.7754    0.0096   54.8194    0.0107   54.8174    0.0108
  0.040   54.7892    0.0129   54.7754    0.0138   54.7854    0.0137   54.7791    0.0128   54.8231    0.0143   54.8211    0.0144
  0.050   54.7940    0.0161   54.7802    0.0172   54.7902    0.0172   54.7839    0.0160   54.8279    0.0179   54.8260    0.0179
  0.060   54.7999    0.0193   54.7861    0.0207   54.7961    0.0206   54.7898    0.0192   54.8338    0.0215   54.8318    0.0215
  0.070   54.8068    0.0225   54.7930    0.0241   54.8030    0.0241   54.7967    0.0224   54.8408    0.0251   54.8388    0.0251
  0.080   54.8148    0.0258   54.8010    0.0276   54.8110    0.0275   54.8048    0.0256   54.8488    0.0287   54.8468    0.0287
  0.090   54.8239    0.0290   54.8101    0.0310   54.8201    0.0310   54.8138    0.0288   54.8579    0.0323   54.8559    0.0323
  0.100   54.8341    0.0322   54.8202    0.0345   54.8303    0.0344   54.8240    0.0320   54.8681    0.0359   54.8661    0.0359
  0.110   54.8453    0.0355   54.8315    0.0379   54.8415    0.0379   54.8352    0.0352   54.8794    0.0395   54.8774    0.0396
  0.120   54.8576    0.0387   54.8438    0.0414   54.8538    0.0413   54.8475    0.0384   54.8917    0.0431   54.8897    0.0432
  0.130   54.8710    0.0419   54.8572    0.0449   54.8672    0.0448   54.8609    0.0416   54.9051    0.0467   54.9031    0.0468
  0.140   54.8855    0.0452   54.8716    0.0483   54.8817    0.0483   54.8754    0.0449   54.9196    0.0503   54.9176    0.0504
  0.150   54.9010    0.0485   54.8872    0.0518   54.8972    0.0518   54.8909    0.0481   54.9352    0.0540   54.9332    0.0541
  0.160   54.9177    0.0517   54.9038    0.0553   54.9138    0.0553   54.9076    0.0513   54.9518    0.0576   54.9498    0.0577
  0.170   54.9354    0.0550   54.9215    0.0588   54.9316    0.0587   54.9253    0.0546   54.9696    0.0612   54.9676    0.0613
  0.180   54.9542    0.0583   54.9403    0.0623   54.9504    0.0622   54.9441    0.0578   54.9884    0.0649   54.9864    0.0650
  0.190   54.9741    0.0615   54.9602    0.0658   54.9702    0.0657   54.9640    0.0611   55.0083    0.0685   55.0063    0.0687
  0.200   54.9950    0.0648   54.9811    0.0693   54.9912    0.0693   54.9849    0.0643   55.0294    0.0722   55.0274    0.0723
  0.210   55.0171    0.0681   55.0032    0.0729   55.0133    0.0728   55.0070    0.0676   55.0515    0.0759   55.0495    0.0760
  0.220   55.0403    0.0714   55.0263    0.0764   55.0365    0.0763   55.0302    0.0709   55.0747    0.0795   55.0727    0.0797
  0.230   55.0646    0.0747   55.0506    0.0799   55.0607    0.0799   55.0545    0.0742   55.0990    0.0832   55.0970    0.0834
  0.240   55.0899    0.0781   55.0760    0.0835   55.0861    0.0834   55.0798    0.0775   55.1244    0.0869   55.1224    0.0871
  0.250   55.1164    0.0814   55.1024    0.0871   55.1126    0.0870   55.1063    0.0808   55.1509    0.0906   55.1489    0.0908
  0.260   55.1440    0.0847   55.1300    0.0906   55.1402    0.0905   55.1339    0.0841   55.1786    0.0944   55.1766    0.0945
  0.270   55.1727    0.0881   55.1587    0.0942   55.1689    0.0941   55.1626    0.0874   55.2073    0.0981   55.2053    0.0983
  0.280   55.2026    0.0915   55.1885    0.0978   55.1987    0.0977   55.1924    0.0908   55.2372    0.1018   55.2352    0.1020
  0.290   55.2335    0.0948   55.2194    0.1014   55.2296    0.1013   55.2233    0.0941   55.2682    0.1056   55.2662    0.1058
  0.300   55.2656    0.0982   55.2515    0.1050   55.2617    0.1049   55.2554    0.0975   55.3003    0.1094   55.2983    0.1096
  0.310   55.2988    0.1016   55.2847    0.1087   55.2948    0.1085   55.2886    0.1009   55.3336    0.1132   55.3316    0.1133
  0.320   55.3331    0.1050   55.3190    0.1123   55.3292    0.1122   55.3229    0.1042   55.3680    0.1169   55.3660    0.1171
  0.330   55.3686    0.1084   55.3544    0.1160   55.3646    0.1158   55.3584    0.1076   55.4035    0.1208   55.4015    0.1210
  0.340   55.4052    0.1119   55.3910    0.1197   55.4012    0.1195   55.3950    0.1111   55.4402    0.1246   55.4382    0.1248
  0.350   55.4429    0.1153   55.4287    0.1233   55.4390    0.1232   55.4327    0.1145   55.4780    0.1284   55.4760    0.1286
  0.360   55.4818    0.1188   55.4676    0.1270   55.4779    0.1269   55.4716    0.1179   55.5170    0.1323   55.5150    0.1325
  0.370   55.5219    0.1223   55.5077    0.1308   55.5179    0.1306   55.5117    0.1214   55.5571    0.1361   55.5551    0.1364
  0.380   55.5631    0.1258   55.5489    0.1345   55.5591    0.1343   55.5529    0.1248   55.5984    0.1400   55.5964    0.1403
  0.390   55.6055    0.1293   55.5912    0.1382   55.6015    0.1381   55.5953    0.1283   55.6409    0.1439   55.6389    0.1442
  0.400   55.6491    0.1328   55.6348    0.1420   55.6451    0.1418   55.6388    0.1318   55.6845    0.1479   55.6825    0.1481
  0.410   55.6938    0.1363   55.6795    0.1458   55.6898    0.1456   55.6836    0.1354   55.7293    0.1518   55.7273    0.1521
  0.420   55.7397    0.1399   55.7254    0.1496   55.7357    0.1494   55.7295    0.1389   55.7753    0.1558   55.7733    0.1560
  0.430   55.7868    0.1435   55.7725    0.1534   55.7828    0.1532   55.7766    0.1424   55.8225    0.1597   55.8205    0.1600
  0.440   55.8351    0.1471   55.8207    0.1573   55.8311    0.1571   55.8249    0.1460   55.8709    0.1637   55.8689    0.1640
  0.450   55.8847    0.1507   55.8702    0.1611   55.8806    0.1609   55.8744    0.1496   55.9205    0.1678   55.9185    0.1681
  0.460   55.9354    0.1543   55.9209    0.1650   55.9313    0.1648   55.9251    0.1532   55.9713    0.1718   55.9693    0.1721
  0.470   55.9873    0.1580   55.9728    0.1689   55.9832    0.1687   55.9770    0.1568   56.0234    0.1759   56.0213    0.1762
  0.480   56.0405    0.1616   56.0259    0.1728   56.0364    0.1726   56.0302    0.1605   56.0766    0.1800   56.0746    0.1803
  0.490   56.0949    0.1653   56.0803    0.1768   56.0907    0.1766   56.0846    0.1641   56.1311    0.1841   56.1291    0.1844
  0.500   56.1505    0.1690   56.1359    0.1807   56.1463    0.1805   56.1402    0.1678   56.1868    0.1882   56.1848    0.1885
  0.510   56.2074    0.1728   56.1927    0.1847   56.2032    0.1845   56.1970    0.1715   56.2438    0.1923   56.2418    0.1927
  0.520   56.2655    0.1765   56.2508    0.1887   56.2613    0.1885   56.2551    0.1753   56.3020    0.1965   56.3000    0.1969
  0.530   56.3249    0.1803   56.3102    0.1928   56.3207    0.1926   56.3145    0.1790   56.3615    0.2007   56.3595    0.2011
  0.540   56.3855    0.1841   56.3708    0.1968   56.3813    0.1966   56.3752    0.1828   56.4223    0.2050   56.4202    0.2053
  0.550   56.4474    0.1879   56.4327    0.2009   56.4432    0.2007   56.4371    0.1866   56.4843    0.2092   56.4823    0.2096
  0.560   56.5106    0.1918   56.4958    0.2050   56.5064    0.2048   56.5003    0.1904   56.5476    0.2135   56.5456    0.2139
  0.570   56.5751    0.1957   56.5603    0.2092   56.5709    0.2089   56.5648    0.1943   56.6122    0.2178   56.6102    0.2182
  0.580   56.6410    0.1996   56.6261    0.2133   56.6367    0.2131   56.6306    0.1982   56.6782    0.2222   56.6761    0.2225
  0.590   56.7081    0.2035   56.6931    0.2175   56.7038    0.2173   56.6977    0.2021   56.7454    0.2265   56.7434    0.2269
  0.600   56.7765    0.2074   56.7615    0.2218   56.7722    0.2215   56.7661    0.2060   56.8140    0.2309   56.8119    0.2313
  0.610   56.8463    0.2114   56.8313    0.2260   56.8419    0.2257   56.8358    0.2100   56.8839    0.2353   56.8818    0.2357
  0.620   56.9174    0.2154   56.9023    0.2303   56.9130    0.2300   56.9069    0.2140   56.9551    0.2398   56.9530    0.2402
  0.630   56.9898    0.2195   56.9747    0.2346   56.9855    0.2343   56.9794    0.2180   57.0277    0.2443   57.0256    0.2447
  0.640   57.0636    0.2235   57.0485    0.2389   57.0592    0.2387   57.0532    0.2220   57.1016    0.2488   57.0996    0.2492
  0.650   57.1388    0.2276   57.1237    0.2433   57.1344    0.2430   57.1284    0.2261   57.1769    0.2534   57.1749    0.2538
  0.660   57.2154    0.2318   57.2002    0.2477   57.2110    0.2474   57.2049    0.2302   57.2536    0.2580   57.2516    0.2584
  0.670   57.2934    0.2359   57.2781    0.2522   57.2889    0.2519   57.2829    0.2344   57.3317    0.2626   57.3297    0.2630
  0.680   57.3727    0.2401   57.3574    0.2566   57.3682    0.2563   57.3622    0.2385   57.4113    0.2673   57.4092    0.2677
  0.690   57.4535    0.2443   57.4381    0.2611   57.4490    0.2609   57.4430    0.2427   57.4922    0.2720   57.4901    0.2724
  0.700   57.5357    0.2486   57.5203    0.2657   57.5312    0.2654   57.5251    0.2470   57.5745    0.2767   57.5725    0.2771
  0.710   57.6193    0.2529   57.6039    0.2703   57.6148    0.2700   57.6088    0.2512   57.6583    0.2815   57.6563    0.2819
  0.720   57.7044    0.2572   57.6889    0.2749   57.6998    0.2746   57.6938    0.2555   57.7436    0.2863   57.7415    0.2867
  0.730   57.7910    0.2616   57.7754    0.2795   57.7864    0.2792   57.7804    0.2599   57.8303    0.2911   57.8282    0.2916
  0.740   57.8790    0.2660   57.8634    0.2842   57.8744    0.2839   57.8684    0.2643   57.9185    0.2960   57.9164    0.2965
  0.750   57.9685    0.2704   57.9528    0.2890   57.9638    0.2886   57.9579    0.2687   58.0081    0.3010   58.0061    0.3014
  0.760   58.0595    0.2749   58.0438    0.2937   58.0548    0.2934   58.0489    0.2731   58.0993    0.3059   58.0972    0.3064
  0.770   58.1520    0.2794   58.1362    0.2986   58.1473    0.2982   58.1414    0.2776   58.1920    0.3109   58.1899    0.3114
  0.780   58.2461    0.2840   58.2302    0.3034   58.2414    0.3031   58.2354    0.2822   58.2862    0.3160   58.2842    0.3165
  0.790   58.3417    0.2886   58.3258    0.3083   58.3369    0.3080   58.3310    0.2867   58.3820    0.3211   58.3799    0.3216
  0.800   58.4388    0.2932   58.4229    0.3133   58.4341    0.3129   58.4282    0.2914   58.4794    0.3263   58.4773    0.3268
  0.810   58.5376    0.2979   58.5216    0.3182   58.5328    0.3179   58.5269    0.2960   58.5783    0.3315   58.5762    0.3320
  0.820   58.6379    0.3026   58.6218    0.3233   58.6330    0.3229   58.6272    0.3007   58.6788    0.3367   58.6767    0.3372
  0.830   58.7398    0.3074   58.7237    0.3284   58.7349    0.3280   58.7291    0.3055   58.7809    0.3420   58.7788    0.3425
  0.840   58.8433    0.3122   58.8271    0.3335   58.8384    0.3331   58.8326    0.3103   58.8846    0.3474   58.8825    0.3479
  0.850   58.9485    0.3171   58.9322    0.3387   58.9436    0.3383   58.9378    0.3151   58.9900    0.3528   58.9879    0.3533
  0.860   59.0553    0.3220   59.0390    0.3439   59.0504    0.3435   59.0446    0.3200   59.0970    0.3582   59.0949    0.3587
  0.870   59.1638    0.3269   59.1474    0.3492   59.1588    0.3488   59.1530    0.3249   59.2057    0.3637   59.2036    0.3643
  0.880   59.2740    0.3319   59.2575    0.3545   59.2689    0.3541   59.2632    0.3299   59.3161    0.3693   59.3140    0.3698
  0.890   59.3859    0.3370   59.3693    0.3599   59.3808    0.3595   59.3751    0.3350   59.4281    0.3749   59.4261    0.3754
  0.900   59.4995    0.3421   59.4828    0.3653   59.4943    0.3649   59.4886    0.3400   59.5420    0.3806   59.5399    0.3811
  0.910   59.6148    0.3472   59.5981    0.3708   59.6096    0.3704   59.6040    0.3452   59.6575    0.3863   59.6554    0.3868
  0.920   59.7319    0.3525   59.7151    0.3764   59.7267    0.3760   59.7210    0.3504   59.7748    0.3921   59.7727    0.3926
  0.930   59.8507    0.3577   59.8339    0.3820   59.8455    0.3816   59.8399    0.3556   59.8939    0.3979   59.8918    0.3985
  0.940   59.9714    0.3630   59.9545    0.3876   59.9661    0.3872   59.9605    0.3609   60.0148    0.4038   60.0127    0.4044
  0.950   60.0939    0.3684   60.0769    0.3934   60.0886    0.3930   60.0830    0.3663   60.1375    0.4098   60.1354    0.4104
  0.960   60.2182    0.3739   60.2011    0.3992   60.2129    0.3988   60.2073    0.3717   60.2621    0.4158   60.2600    0.4164
  0.970   60.3444    0.3794   60.3272    0.4050   60.3390    0.4046   60.3334    0.3772   60.3885    0.4219   60.3864    0.4225
  0.980   60.4724    0.3849   60.4552    0.4109   60.4670    0.4105   60.4615    0.3827   60.5168    0.4281   60.5146    0.4287
  0.990   60.6023    0.3905   60.5850    0.4169   60.5969    0.4165   60.5914    0.3883   60.6470    0.4343   60.6448    0.4349
  1.000   60.7342    0.3962   60.7168    0.4229   60.7287    0.4225   60.7232    0.3940   60.7791    0.4406   60.7770    0.4413
  1.010   60.8680    0.4020   60.8505    0.4291   60.8625    0.4286   60.8570    0.3997   60.9131    0.4470   60.9110    0.4476
  1.020   61.0038    0.4078   60.9862    0.4352   60.9982    0.4348   60.9928    0.4055   61.0492    0.4535   61.0471    0.4541
  1.030   61.1415    0.4136   61.1239    0.4415   61.1359    0.4411   61.1305    0.4114   61.1872    0.4600   61.1851    0.4606
  1.040   61.2813    0.4196   61.2636    0.4478   61.2757    0.4474   61.2703    0.4173   61.3273    0.4666   61.3251    0.4672
  1.050   61.4231    0.4256   61.4053    0.4542   61.4174    0.4538   61.4121    0.4233   61.4694    0.4733   61.4672    0.4739
  1.060   61.5670    0.4317   61.5491    0.4607   61.5613    0.4603   61.5560    0.4294   61.6135    0.4800   61.6114    0.4807
  1.070   61.7130    0.4379   61.6950    0.4672   61.7072    0.4668   61.7019    0.4356   61.7598    0.4868   61.7576    0.4875
  1.080   61.8611    0.4441   61.8430    0.4739   61.8552    0.4734   61.8500    0.4418   61.9081    0.4938   61.9060    0.4944
  1.090   62.0113    0.4504   61.9931    0.4806   62.0054    0.4801   62.0002    0.4481   62.0587    0.5008   62.0565    0.5014
  1.100   62.1637    0.4568   62.1454    0.4874   62.1577    0.4869   62.1526    0.4545   62.2114    0.5079   62.2092    0.5085
  1.110   62.3183    0.4633   62.2999    0.4943   62.3123    0.4938   62.3072    0.4609   62.3663    0.5150   62.3641    0.5157
  1.120   62.4751    0.4698   62.4566    0.5012   62.4691    0.5008   62.4640    0.4675   62.5234    0.5223   62.5213    0.5230
  1.130   62.6342    0.4765   62.6156    0.5083   62.6281    0.5078   62.6230    0.4741   62.6828    0.5297   62.6807    0.5304
  1.140   62.7955    0.4832   62.7768    0.5154   62.7894    0.5150   62.7844    0.4808   62.8445    0.5371   62.8424    0.5378
  1.150   62.9592    0.4900   62.9404    0.5227   62.9530    0.5222   62.9480    0.4876   63.0085    0.5447   63.0064    0.5454
  1.160   63.1252    0.4969   63.1063    0.5300   63.1190    0.5295   63.1140    0.4945   63.1749    0.5523   63.1727    0.5530
  1.170   63.2937    0.5039   63.2746    0.5374   63.2873    0.5369   63.2824    0.5015   63.3436    0.5601   63.3415    0.5608
  1.180   63.4645    0.5110   63.4453    0.5449   63.4581    0.5444   63.4532    0.5086   63.5148    0.5679   63.5126    0.5686
  1.190   63.6377    0.5181   63.6185    0.5525   63.6313    0.5521   63.6265    0.5157   63.6884    0.5759   63.6862    0.5766
  1.200   63.8135    0.5254   63.7941    0.5603   63.8070    0.5598   63.8022    0.5230   63.8645    0.5839   63.8623    0.5846
  1.210   63.9917    0.5328   63.9722    0.5681   63.9852    0.5676   63.9805    0.5304   64.0431    0.5921   64.0410    0.5928
  1.220   64.1725    0.5403   64.1529    0.5760   64.1659    0.5755   64.1613    0.5378   64.2243    0.6004   64.2221    0.6011
  1.230   64.3559    0.5478   64.3362    0.5841   64.3492    0.5836   64.3446    0.5454   64.4081    0.6088   64.4059    0.6095
  1.240   64.5419    0.5555   64.5221    0.5922   64.5352    0.5917   64.5306    0.5531   64.5945    0.6173   64.5923    0.6180
  1.250   64.7306    0.5633   64.7106    0.6005   64.7238    0.6000   64.7193    0.5609   64.7835    0.6259   64.7814    0.6267
  1.260   64.9220    0.5712   64.9019    0.6089   64.9151    0.6084   64.9107    0.5688   64.9753    0.6347   64.9731    0.6354
  1.270   65.1161    0.5792   65.0959    0.6174   65.1092    0.6169   65.1048    0.5768   65.1698    0.6435   65.1677    0.6443
  1.280   65.3130    0.5874   65.2926    0.6260   65.3060    0.6255   65.3017    0.5849   65.3671    0.6525   65.3650    0.6533
  1.290   65.5127    0.5956   65.4922    0.6348   65.5057    0.6342   65.5014    0.5932   65.5673    0.6617   65.5651    0.6624
  1.300   65.7153    0.6040   65.6947    0.6436   65.7082    0.6431   65.7040    0.6015   65.7703    0.6709   65.7681    0.6717
  1.310   65.9208    0.6125   65.9001    0.6526   65.9136    0.6521   65.9095    0.6100   65.9762    0.6803   65.9741    0.6811
  1.320   66.1293    0.6211   66.1084    0.6618   66.1220    0.6613   66.1179    0.6187   66.1851    0.6899   66.1830    0.6907
  1.330   66.3407    0.6299   66.3197    0.6711   66.3334    0.6705   66.3294    0.6274   66.3971    0.6996   66.3949    0.7004
  1.340   66.5552    0.6387   66.5340    0.6805   66.5478    0.6799   66.5439    0.6363   66.6120    0.7094   66.6098    0.7102
  1.350   66.7728    0.6478   66.7515    0.6900   66.7653    0.6895   66.7614    0.6453   66.8301    0.7194   66.8279    0.7202
  1.360   66.9936    0.6569   66.9721    0.6998   66.9860    0.6992   66.9822    0.6545   67.0513    0.7295   67.0491    0.7303
  1.370   67.2175    0.6662   67.1959    0.7096   67.2099    0.7091   67.2061    0.6638   67.2757    0.7398   67.2736    0.7406
  1.380   67.4447    0.6757   67.4229    0.7196   67.4370    0.7191   67.4333    0.6733   67.5034    0.7503   67.5013    0.7511
  1.390   67.6752    0.6853   67.6533    0.7298   67.6674    0.7292   67.6638    0.6829   67.7344    0.7609   67.7322    0.7617
  1.400   67.9091    0.6950   67.8869    0.7401   67.9011    0.7396   67.8977    0.6926   67.9688    0.7717   67.9666    0.7725
  1.410   68.1463    0.7049   68.1240    0.7506   68.1383    0.7501   68.1349    0.7026   68.2066    0.7827   68.2044    0.7835
  1.420   68.3871    0.7150   68.3646    0.7613   68.3790    0.7607   68.3756    0.7126   68.4478    0.7938   68.4457    0.7946
  1.430   68.6313    0.7252   68.6087    0.7721   68.6231    0.7716   68.6199    0.7229   68.6926    0.8051   68.6905    0.8060
  1.440   68.8792    0.7356   68.8564    0.7831   68.8709    0.7826   68.8677    0.7333   68.9410    0.8166   68.9388    0.8175
  1.450   69.1307    0.7462   69.1077    0.7943   69.1223    0.7938   69.1192    0.7439   69.1931    0.8283   69.1909    0.8292
  1.460   69.3859    0.7570   69.3627    0.8057   69.3774    0.8051   69.3745    0.7547   69.4489    0.8402   69.4467    0.8411
  1.470   69.6449    0.7679   69.6215    0.8173   69.6363    0.8167   69.6334    0.7656   69.7084    0.8523   69.7062    0.8531
  1.480   69.9077    0.7790   69.8841    0.8291   69.8990    0.8285   69.8963    0.7768   69.9718    0.8646   69.9697    0.8654
  1.490   70.1744    0.7903   70.1507    0.8410   70.1656    0.8404   70.1630    0.7881   70.2392    0.8771   70.2370    0.8780
  1.500   70.4451    0.8018   70.4212    0.8532   70.4362    0.8526   70.4337    0.7997   70.5105    0.8898   70.5083    0.8907
  1.510   70.7199    0.8135   70.6958    0.8656   70.7109    0.8650   70.7085    0.8114   70.7859    0.9028   70.7837    0.9036
  1.520   70.9988    0.8255   70.9745    0.8782   70.9897    0.8776   70.9874    0.8233   71.0654    0.9159   71.0633    0.9168
  1.530   71.2819    0.8376   71.2573    0.8910   71.2727    0.8904   71.2705    0.8355   71.3492    0.9293   71.3470    0.9302
  1.540   71.5693    0.8499   71.5445    0.9041   71.5599    0.9035   71.5579    0.8479   71.6372    0.9430   71.6350    0.9438
  1.550   71.8610    0.8625   71.8360    0.9173   71.8515    0.9167   71.8496    0.8605   71.9296    0.9569   71.9275    0.9577
  1.560   72.1572    0.8753   72.1320    0.9309   72.1476    0.9303   72.1458    0.8733   72.2265    0.9710   72.2243    0.9719
  1.570   72.4579    0.8883   72.4325    0.9446   72.4482    0.9440   72.4465    0.8864   72.5279    0.9854   72.5257    0.9863
  1.580   72.7632    0.9016   72.7375    0.9587   72.7534    0.9581   72.7519    0.8997   72.8339    1.0001   72.8317    1.0009
  1.590   73.0732    0.9151   73.0473    0.9729   73.0632    0.9723   73.0619    0.9133   73.1446    1.0150   73.1425    1.0158
  1.600   73.3880    0.9289   73.3619    0.9875   73.3779    0.9869   73.3767    0.9271   73.4602    1.0302   73.4580    1.0311
  1.610   73.7076    0.9429   73.6813    1.0023   73.6974    1.0017   73.6964    0.9412   73.7806    1.0457   73.7785    1.0466
  1.620   74.0323    0.9572   74.0057    1.0174   74.0220    1.0168   74.0211    0.9555   74.1061    1.0615   74.1039    1.0623
  1.630   74.3620    0.9718   74.3352    1.0328   74.3516    1.0322   74.3508    0.9701   74.4366    1.0776   74.4344    1.0784
  1.640   74.6969    0.9866   74.6699    1.0485   74.6863    1.0479   74.6858    0.9851   74.7723    1.0940   74.7702    1.0948
  1.650   75.0371    1.0018   75.0098    1.0645   75.0264    1.0639   75.0260    1.0003   75.1133    1.1107   75.1112    1.1116
  1.660   75.3827    1.0172   75.3551    1.0808   75.3718    1.0802   75.3716    1.0158   75.4598    1.1278   75.4576    1.1286
  1.670   75.7338    1.0330   75.7059    1.0974   75.7228    1.0968   75.7228    1.0316   75.8117    1.1451   75.8096    1.1460
  1.680   76.0905    1.0490   76.0624    1.1144   76.0793    1.1138   76.0795    1.0477   76.1693    1.1629   76.1672    1.1637
  1.690   76.4530    1.0654   76.4245    1.1317   76.4416    1.1311   76.4420    1.0642   76.5326    1.1810   76.5305    1.1818
  1.700   76.8213    1.0822   76.7925    1.1493   76.8097    1.1487   76.8103    1.0810   76.9018    1.1994   76.8997    1.2003
  1.710   77.1955    1.0992   77.1665    1.1673   77.1838    1.1667   77.1847    1.0982   77.2770    1.2183   77.2749    1.2191
  1.720   77.5759    1.1167   77.5466    1.1857   77.5640    1.1851   77.5651    1.1157   77.6584    1.2375   77.6563    1.2384
  1.730   77.9625    1.1345   77.9329    1.2045   77.9505    1.2039   77.9518    1.1336   78.0460    1.2571   78.0439    1.2580
  1.740   78.3555    1.1526   78.3256    1.2236   78.3433    1.2230   78.3448    1.1519   78.4400    1.2772   78.4378    1.2780
  1.750   78.7550    1.1712   78.7247    1.2432   78.7426    1.2426   78.7444    1.1705   78.8405    1.2977   78.8384    1.2985
  1.760   79.1612    1.1902   79.1306    1.2632   79.1486    1.2626   79.1506    1.1896   79.2477    1.3186   79.2456    1.3194
  1.770   79.5741    1.2095   79.5432    1.2836   79.5614    1.2830   79.5636    1.2091   79.6617    1.3399   79.6596    1.3408
  1.780   79.9941    1.2293   79.9628    1.3044   79.9811    1.3038   79.9836    1.2290   80.0827    1.3617   80.0806    1.3626
  1.790   80.4211    1.2495   80.3895    1.3258   80.4079    1.3252   80.4107    1.2493   80.5109    1.3841   80.5088    1.3849
  1.800   80.8554    1.2702   80.8235    1.3475   80.8421    1.3469   80.8451    1.2701   80.9463    1.4069   80.9443    1.4077
  1.810   81.2972    1.2914   81.2649    1.3698   81.2836    1.3692   81.2870    1.2914   81.3893    1.4302   81.3872    1.4310
  1.820   81.7466    1.3130   81.7139    1.3926   81.7328    1.3920   81.7365    1.3132   81.8398    1.4540   81.8378    1.4548
  1.830   82.2038    1.3351   82.1707    1.4159   82.1898    1.4153   82.1938    1.3354   82.2983    1.4784   82.2962    1.4792
  1.840   82.6690    1.3577   82.6355    1.4397   82.6548    1.4391   82.6591    1.3582   82.7647    1.5033   82.7627    1.5041
  1.850   83.1424    1.3809   83.1085    1.4640   83.1279    1.4635   83.1325    1.3815   83.2393    1.5288   83.2373    1.5296
  1.860   83.6241    1.4046   83.5898    1.4890   83.6094    1.4884   83.6144    1.4054   83.7224    1.5549   83.7204    1.5557
  1.870   84.1144    1.4288   84.0797    1.5145   84.0995    1.5139   84.1048    1.4298   84.2140    1.5817   84.2120    1.5824
  1.880   84.6136    1.4537   84.5784    1.5406   84.5983    1.5401   84.6041    1.4548   84.7145    1.6090   84.7125    1.6098
  1.890   85.1217    1.4791   85.0861    1.5674   85.1062    1.5668   85.1123    1.4805   85.2240    1.6370   85.2221    1.6378
  1.900   85.6391    1.5052   85.6030    1.5948   85.6233    1.5942   85.6298    1.5067   85.7428    1.6657   85.7409    1.6665
  1.910   86.1659    1.5319   86.1294    1.6229   86.1499    1.6223   86.1568    1.5336   86.2712    1.6951   86.2692    1.6958
  1.920   86.7025    1.5592   86.6655    1.6516   86.6862    1.6511   86.6935    1.5612   86.8092    1.7253   86.8073    1.7260
  1.930   87.2490    1.5873   87.2115    1.6811   87.2324    1.6806   87.2402    1.5895   87.3573    1.7562   87.3554    1.7568
  1.940   87.8057    1.6160   87.7678    1.7114   87.7889    1.7108   87.7971    1.6185   87.9156    1.7878   87.9137    1.7885
  1.950   88.3730    1.6455   88.3345    1.7423   88.3558    1.7418   88.3645    1.6482   88.4844    1.8203   88.4826    1.8209
  1.960   88.9510    1.6758   88.9120    1.7741   88.9335    1.7736   88.9427    1.6787   89.0641    1.8536   89.0623    1.8542
  1.970   89.5400    1.7068   89.5005    1.8067   89.5223    1.8062   89.5320    1.7101   89.6549    1.8878   89.6531    1.8884
  1.980   90.1405    1.7387   90.1004    1.8402   90.1224    1.8397   90.1326    1.7422   90.2571    1.9228   90.2553    1.9234
  1.990   90.7526    1.7714   90.7119    1.8745   90.7341    1.8741   90.7449    1.7752   90.8710    1.9588   90.8692    1.9594
  2.000   91.3767    1.8050   91.3355    1.9098   91.3579    1.9093   91.3693    1.8091   91.4969    1.9958   91.4951    1.9963
  2.010   92.0131    1.8395   91.9713    1.9460   91.9939    1.9456   92.0059    1.8439   92.1352    2.0337   92.1335    2.0343
  2.020   92.6622    1.8749   92.6198    1.9832   92.6427    1.9828   92.6553    1.8797   92.7862    2.0727   92.7845    2.0732
  2.030   93.3244    1.9114   93.2813    2.0214   93.3045    2.0210   93.3177    1.9165   93.4504    2.1128   93.4487    2.1133
  2.040   93.9999    1.9488   93.9562    2.0607   93.9796    2.0603   93.9935    1.9543   94.1280    2.1540   94.1263    2.1544
  2.050   94.6893    1.9873   94.6449    2.1011   94.6686    2.1007   94.6831    1.9932   94.8194    2.1963   94.8178    2.1968
  2.060   95.3929    2.0269   95.3478    2.1426   95.3717    2.1422   95.3870    2.0332   95.5251    2.2399   95.5236    2.2403
  2.070   96.1110    2.0677   96.0653    2.1854   96.0895    2.1850   96.1055    2.0743   96.2456    2.2847   96.2440    2.2850
  2.080   96.8443    2.1096   96.7978    2.2293   96.8223    2.2290   96.8391    2.1167   96.9811    2.3308   96.9796    2.3311
  2.090   97.5931    2.1528   97.5459    2.2746   97.5707    2.2742   97.5882    2.1603   97.7322    2.3782   97.7308    2.3785
  2.100   98.3579    2.1972   98.3099    2.3211   98.3350    2.3208   98.3534    2.2053   98.4994    2.4271   98.4980    2.4274
  2.110   99.1392    2.2430   99.0904    2.3691   99.1158    2.3688   99.1351    2.2516   99.2832    2.4774   99.2818    2.4777
  2.120   99.9375    2.2902   99.8879    2.4186   99.9136    2.4183   99.9338    2.2993  100.0841    2.5293  100.0827    2.5295
  2.130  100.7534    2.3389  100.7029    2.4695  100.7290    2.4693  100.7501    2.3485  100.9026    2.5827  100.9013    2.5829
  2.140  101.5874    2.3890  101.5361    2.5220  101.5624    2.5218  101.5845    2.3992  101.7392    2.6378  101.7380    2.6380
  2.150  102.4400    2.4408  102.3879    2.5762  102.4145    2.5760  102.4376    2.4516  102.5947    2.6947  102.5935    2.6948
  2.160  103.3121    2.4942  103.2589    2.6321  103.2860    2.6319  103.3101    2.5056  103.4696    2.7533  103.4685    2.7534
  2.170  104.2040    2.5493  104.1500    2.6898  104.1773    2.6896  104.2026    2.5614  104.3645    2.8139  104.3634    2.8139
  2.180  105.1166    2.6062  105.0616    2.7493  105.0893    2.7492  105.1157    2.6190  105.2802    2.8764  105.2791    2.8764
  2.190  106.0505    2.6650  105.9945    2.8108  106.0226    2.8108  106.0502    2.6785  106.2172    2.9410  106.2163    2.9409
  2.200  107.0065    2.7258  106.9494    2.8744  106.9779    2.8744  107.0068    2.7400  107.1765    3.0077  107.1756    3.0076
  2.210  107.9853    2.7886  107.9271    2.9401  107.9561    2.9401  107.9862    2.8037  108.1586    3.0767  108.1578    3.0765
  2.220  108.9878    2.8536  108.9285    3.0080  108.9578    3.0080  108.9893    2.8695  109.1645    3.1480  109.1638    3.1478
  2.230  110.0147    2.9208  109.9542    3.0783  109.9840    3.0784  110.0169    2.9376  110.1950    3.2218  110.1944    3.2215
  2.240  111.0670    2.9904  111.0053    3.1510  111.0355    3.1511  111.0699    3.0081  111.2510    3.2982  111.2504    3.2978
  2.250  112.1455    3.0625  112.0826    3.2263  112.1133    3.2265  112.1492    3.0811  112.3334    3.3773  112.3329    3.3768
  2.260  113.2514    3.1371  113.1872    3.3043  113.2183    3.3045  113.2558    3.1568  113.4432    3.4592  113.4427    3.4587
  2.270  114.3855    3.2145  114.3199    3.3851  114.3516    3.3854  114.3908    3.2353  114.5814    3.5441  114.5810    3.5435
  2.280  115.5489    3.2948  115.4820    3.4689  115.5141    3.4692  115.5551    3.3167  115.7490    3.6322  115.7488    3.6315
  2.290  116.7429    3.3781  116.6745    3.5558  116.7071    3.5562  116.7500    3.4011  116.9474    3.7235  116.9472    3.7228
  2.300  117.9685    3.4645  117.8987    3.6461  117.9318    3.6465  117.9766    3.4888  118.1775    3.8183  118.1775    3.8175
  2.310  119.2270    3.5543  119.1556    3.7397  119.1894    3.7402  119.2361    3.5799  119.4408    3.9168  119.4409    3.9159
  2.320  120.5198    3.6476  120.4468    3.8370  120.4811    3.8375  120.5300    3.6745  120.7384    4.0190  120.7386    4.0181
  2.330  121.8483    3.7445  121.7736    3.9381  121.8085    3.9387  121.8596    3.7730  122.0719    4.1254  122.0722    4.1243
  2.340  123.2138    3.8454  123.1374    4.0433  123.1729    4.0440  123.2263    3.8754  123.4427    4.2360  123.4432    4.2348
  2.350  124.6180    3.9504  124.5398    4.1527  124.5759    4.1535  124.6318    3.9820  124.8523    4.3510  124.8529    4.3497
  2.360  126.0625    4.0597  125.9824    4.2667  126.0192    4.2675  126.0776    4.0930  126.3025    4.4709  126.3032    4.4695
  2.370  127.5490    4.1736  127.4669    4.3854  127.5044    4.3863  127.5656    4.2087  127.7949    4.5957  127.7958    4.5942
  2.380  129.0794    4.2924  128.9953    4.5091  129.0335    4.5101  129.0974    4.3294  129.3314    4.7259  129.3325    4.7242
  2.390  130.6557    4.4163  130.5694    4.6381  130.6083    4.6393  130.6752    4.4553  130.9139    4.8617  130.9152    4.8599
  2.400  132.2798    4.5457  132.1912    4.7728  132.2309    4.7741  132.3010    4.5868  132.5446    5.0034  132.5461    5.0015
  2.410  133.9540    4.6808  133.8631    4.9135  133.9035    4.9148  133.9770    4.7242  134.2257    5.1515  134.2274    5.1494
  2.420  135.6805    4.8221  135.5872    5.0605  135.6285    5.0620  135.7054    4.8679  135.9594    5.3063  135.9613    5.3040
  2.430  137.4620    4.9699  137.3660    5.2143  137.4082    5.2159  137.4888    5.0182  137.7484    5.4681  137.7505    5.4658
  2.440  139.3009    5.1246  139.2023    5.3752  139.2454    5.3769  139.3299    5.1756  139.5951    5.6376  139.5975    5.6350
  2.450  141.2002    5.2867  141.0987    5.5438  141.1428    5.5456  141.2313    5.3405  141.5025    5.8151  141.5051    5.8124
  2.460  143.1628    5.4566  143.0583    5.7205  143.1034    5.7225  143.1962    5.5135  143.4736    6.0013  143.4765    5.9983
  2.470  145.1918    5.6350  145.0843    5.9058  145.1303    5.9080  145.2278    5.6950  145.5115    6.1965  145.5147    6.1934
  2.480  147.2908    5.8223  147.1800    6.1004  147.2271    6.1028  147.3294    5.8858  147.6198    6.4016  147.6233    6.3982
  2.490  149.4633    6.0192  149.3491    6.3050  149.3973    6.3075  149.5048    6.0863  149.8020    6.6171  149.8059    6.6136
  2.500  151.7133    6.2263  151.5955    6.5201  151.6449    6.5228  151.7578    6.2973  152.0622    6.8439  152.0664    6.8401
  2.510  154.0450    6.4444  153.9233    6.7465  153.9740    6.7494  154.0926    6.5195  154.4046    7.0826  154.4092    7.0786
  2.520  156.4629    6.6743  156.3371    6.9852  156.3891    6.9883  156.5139    6.7538  156.8337    7.3343  156.8386    7.3299
  2.530  158.9718    6.9169  158.8417    7.2369  158.8951    7.2402  159.0264    7.0011  159.3543    7.5997  159.3597    7.5951
  2.540  161.5769    7.1731  161.4423    7.5026  161.4971    7.5063  161.6354    7.2624  161.9718    7.8801  161.9777    7.8752
  2.550  164.2839    7.4440  164.1445    7.7836  164.2009    7.7875  164.3465    7.5387  164.6918    8.1765  164.6982    8.1713
  2.560  167.0988    7.7307  166.9544    8.0809  167.0123    8.0851  167.1658    7.8312  167.5204    8.4903  167.5273    8.4847
  2.570  170.0283    8.0346  169.8784    8.3958  169.9380    8.4004  170.0999    8.1413  170.4642    8.8228  170.4717    8.8168
  2.580  173.0793    8.3571  172.9237    8.7299  172.9851    8.7348  173.1560    8.4704  173.5305    9.1755  173.5386    9.1691
  2.590  176.2597    8.6996  176.0980    9.0847  176.1613    9.0900  176.3418    8.8201  176.7269    9.5502  176.7357    9.5434
  2.600  179.5778    9.0640  179.4095    9.4620  179.4749    9.4677  179.6657    9.1922  180.0620    9.9488  180.0715    9.9416
  2.610  183.0427    9.4521  182.8675    9.8639  182.9350    9.8700  183.1368    9.5887  183.5449   10.3734  183.5551   10.3656
  2.620  186.6645    9.8662  186.4818   10.2923  186.5516   10.2989  186.7652   10.0118  187.1856   10.8262  187.1967   10.8180
  2.630  190.4539   10.3085  190.2632   10.7500  190.3354   10.7571  190.5618   10.4639  190.9951   11.3100  191.0071   11.3013
  2.640  194.4229   10.7819  194.2235   11.2395  194.2984   11.2472  194.5385   10.9478  194.9855   11.8277  194.9985   11.8184
  2.650  198.5845   11.2892  198.3759   11.7640  198.4535   11.7724  198.7085   11.4666  199.1698   12.3825  199.1839   12.3726
  2.660  202.9531   11.8339  202.7345   12.3270  202.8151   12.3360  203.0861   12.0238  203.5626   12.9782  203.5778   12.9676
  2.670  207.5445   12.4198  207.3152   12.9323  207.3989   12.9421  207.6872   12.6234  208.1797   13.6189  208.1962   13.6075
  2.680  212.3762   13.0512  212.1352   13.5844  212.2224   13.5950  212.5295   13.2696  213.0389   14.3093  213.0567   14.2972
  2.690  217.4675   13.7330  217.2139   14.2884  217.3048   14.2999  217.6323   13.9677  218.1596   15.0549  218.1789   15.0419
  2.700  222.8400   14.4708  222.5726   15.0498  222.6675   15.0623  223.0172   14.7234  223.5634   15.8617  223.5845   15.8478
  2.710  228.5176   15.2710  228.2351   15.8754  228.3344   15.8890  228.7083   15.5432  229.2746   16.7367  229.2975   16.7219
  2.720  234.5269   16.1410  234.2281   16.7725  234.3320   16.7874  234.7324   16.4347  235.3199   17.6879  235.3449   17.6721
  2.730  240.8979   17.0891  240.5811   17.7499  240.6901   17.7662  241.1195   17.4067  241.7297   18.7247  241.7569   18.7077
  2.740  247.6642   18.1252  247.3277   18.8175  247.4423   18.8354  247.9035   18.4693  248.5378   19.8577  248.5674   19.8395
  2.750  254.8638   19.2606  254.5055   19.9871  254.6262   20.0067  255.1225   19.6341  255.7824   21.0994  255.8148   21.0798
  2.760  262.5396   20.5087  262.1571   21.2721  262.2845   21.2937  262.8195   20.9150  263.5067   22.4644  263.5422   22.4433
  2.770  270.7403   21.8850  270.3310   22.6885  270.4657   22.7123  271.0436   22.3280  271.7600   23.9696  271.7989   23.9470
  2.780  279.5215   23.4080  279.0823   24.2551  279.2252   24.2815  279.8507   23.8922  280.5982   25.6354  280.6410   25.6111
  2.790  288.9470   25.0995  288.4743   25.9943  288.6262   26.0236  289.3048   25.6302  290.0855   27.4857  290.1327   27.4595
  2.800  299.0900   26.9857  298.5797   27.9326  298.7417   27.9653  299.4797   27.5689  300.2958   29.5492  300.3480   29.5208
  2.810  310.0356   29.0979  309.4827   30.1022  309.6560   30.1387  310.4606   29.7409  311.3147   31.8602  311.3725   31.8296
  2.820  321.8822   31.4742  321.2811   32.5417  321.4669   32.5827  322.3466   32.1855  323.2412   34.4605  323.3055   34.4274
  2.830  334.7454   34.1611  334.0890   35.2984  334.2891   35.3448  335.2539   34.9509  336.1917   37.4012  336.2634   37.3653
  2.840  348.7608   37.2156  348.0410   38.4306  348.2572   38.4831  349.3187   38.0962  350.3025   40.7448  350.3828   40.7059
  2.850  364.0893   40.7088  363.2961   42.0103  363.5307   42.0702  364.7028   41.6950  365.7354   44.5694  365.8257   44.5271
  2.860  380.9226   44.7297  380.0439   46.1280  380.2995   46.1968  381.5988   45.8394  382.6827   48.9727  382.7847   48.9267
  2.870  399.4911   49.3910  398.5119   50.8983  398.7919   50.9777  400.2381   50.6467  401.3757   54.0787  401.4915   54.0287
  2.880  420.0738   54.8376  418.9756   56.4679  419.2840   56.5604  420.9011   56.2670  422.0939   60.0465  422.2261   59.9921
  2.890  443.0118   61.2574  441.7714   63.0274  442.1130   63.1360  443.9302   62.8956  445.1783   67.0829  445.3302   67.0238
  2.900  468.7258   68.8984  467.3134   70.8276  467.6942   70.9564  469.7474   70.7899  471.0487   75.4605  471.2246   75.3963
  2.910  497.7397   78.0924  496.1170   80.2042  496.5446   80.3586  498.8782   80.2953  500.2267   85.5445  500.4318   85.4750
  2.920  530.7135   89.2920  528.8301   91.6139  529.3140   91.8013  531.9835   91.8822  533.3663   97.8327  533.6078   97.7579
  2.930  568.4872  103.1263  566.2762  105.6907  566.8285  105.9214  569.9037  106.2056  571.2965  113.0172  571.5838  112.9375
  2.940  612.1431  120.4896  609.5131  123.3344  610.1495  123.6232  613.7185  124.1967  615.0776  132.0818  615.4233  131.9985
  2.950  663.0900  142.6860  659.9142  145.8543  660.6554  146.2227  664.8295  147.2142  666.0765  156.4597  666.4984  156.3756
  2.960  723.1797  171.6721  719.2778  175.2100  720.1505  175.6905  725.0697  177.2968  726.0646  188.2984  726.5874  188.2194
  2.970  794.8571  210.4808  789.9659  214.4300  791.0057  215.0736  796.8404  217.6043  797.3281  230.9184  797.9880  230.8564
  2.980  881.3297  263.9894  875.0546  268.3683  876.3071  269.2575  883.2492  273.2142  882.7530  289.6370  883.6031  289.6163
  2.990  986.6586  340.3723  978.3915  345.1257  979.9121  346.4003  988.1266  352.6191  985.7215  373.2995  986.8421  373.3706
  3.000 1115.3830  453.9491 1104.1669  458.8190 1106.0089  460.7264 1115.4638  470.6306 1109.2750  497.1941 1110.7868  497.4661
  3.010 1270.2323  630.8781 1254.5582  635.0661 1256.7175  638.0621 1266.6482  654.0559 1252.6986  688.5475 1254.7723  689.2675
  3.020 1442.6508  919.9857 1420.2858  921.2647 1422.4870  926.1952 1429.8349  951.9291 1399.4721  995.5819 1402.2753  997.3309
  3.030 1578.0210 1406.7993 1546.6321 1399.2848 1547.5697 1407.5295 1543.3696 1446.0082 1479.0755 1492.5532 1482.3489 1496.6446
  3.040 1471.9896 2182.3423 1434.5804 2152.3982 1429.9263 2164.5761 1397.5509 2207.5760 1279.3362 2220.2253 1280.5500 2228.5782
  3.050  677.5388 3029.2967  663.3584 2963.7865  646.8772 2972.3785  583.8963 2988.9160  459.8751 2893.9157  452.6207 2903.4763
  3.060 -713.2117 3020.0839 -669.7153 2966.2054 -687.3548 2958.5516 -745.6830 2929.4976 -750.1378 2782.6782 -762.1436 2782.4214
  3.070 ********* 2134.2794 ********* 2129.6077 ********* 2116.6904 ********* 2069.2512 ********* 1992.8661 ********* 1986.7160
  3.080 ********* 1343.1368 ********* 1355.2607 ********* 1346.3000 ********* 1309.6822 ********* 1286.3074 ********* 1281.0812
  3.090 *********  865.7350 *********  876.3081 *********  870.9301 *********  847.5723 *********  843.7921 *********  840.3725
  3.100 *********  594.3609 *********  599.6268 *********  596.2279 *********  581.0105 *********  582.8860 *********  580.8219
  3.110 *********  433.7581 *********  435.7119 *********  432.9026 *********  421.2086 *********  424.9263 *********  423.8116
  3.120 -962.8707  294.2350 -954.5112  303.3759 -952.1132  301.1600 -940.3912  294.3675 -927.7243  300.6262 -927.2024  299.7415
  3.130 -835.8924  213.0032 -833.3455  221.0692 -831.3422  219.9732 -822.1577  217.2251 -814.0976  222.3217 -813.6791  221.6337
  3.140 -739.2037  165.5350 -738.5978  171.3863 -737.0298  170.6795 -729.9478  169.3945 -724.2872  173.4205 -723.9091  172.8563
  3.150 -662.5342  132.0881 -662.6556  136.4116 -661.3702  135.9000 -655.7075  135.3476 -651.5798  138.5754 -651.2319  138.1184
  3.160 -599.4728  107.2578 -599.9050  110.5358 -598.8166  110.1442 -594.1819  110.0216 -591.1081  112.6293 -590.7906  112.2584
  3.170 -546.4798   88.3088 -547.0497   90.8453 -546.1058   90.5340 -542.2532   90.6778 -539.9320   92.7931 -539.6437   92.4896
  3.180 -501.2545   73.5365 -501.8813   75.5299 -501.0468   75.2750 -497.8084   75.5866 -496.0396   77.3056 -495.7779   77.0551
  3.190 -462.1711   61.8087 -462.8151   63.3938 -462.0650   63.1796 -459.3202   63.5961 -457.9654   64.9932 -457.7275   64.7846
  3.200 -428.0286   52.3473 -428.6702   53.6190 -427.9858   53.4350 -425.6453   53.9146 -424.6062   55.0478 -424.3893   54.8728
  3.210 -397.9143   44.6041 -398.5442   45.6310 -397.9111   45.4696 -395.9070   45.9843 -395.1122   46.8993 -394.9139   46.7518
  3.220 -371.1196   38.1842 -371.7342   39.0174 -371.1408   38.8733 -369.4210   39.4031 -368.8174   40.1368 -368.6355   40.0120
  3.230 -347.0842   32.7982 -347.6831   33.4762 -347.1201   33.3455 -345.6435   33.8764 -345.1911   34.4583 -345.0236   34.3524
  3.240 -325.3578   28.2300 -325.9426   28.7826 -325.4017   28.6622 -324.1363   29.1839 -323.8040   29.6382 -323.6494   29.5483
  3.250 -305.5724   24.3160 -306.1459   24.7667 -305.6200   24.6543 -304.5401   25.1587 -304.3037   25.5053 -304.1606   25.4293
  3.260 -287.4222   20.9307 -287.9881   21.2982 -287.4706   21.1920 -286.5559   21.6727 -286.3958   21.9285 -286.2633   21.8645
  3.270 -270.6483   17.9769 -271.2110   18.2764 -270.6954   18.1752 -269.9296   18.6266 -269.8301   18.8058 -269.7073   18.7524
  3.280 -255.0265   15.3787 -255.5912   15.6229 -255.0710   15.5257 -254.4413   15.9427 -254.3888   16.0579 -254.2752   16.0139
  3.290 -240.3574   13.0772 -240.9303   13.2767 -240.3984   13.1829 -239.8948   13.5602 -239.8774   13.6228 -239.7728   13.5872
  3.300 -226.4575   11.0268 -227.0461   11.1911 -226.4947   11.1003 -226.1094   11.4322 -226.1165   11.4532 -226.0209   11.4252
  3.310 -213.1512    9.1939 -213.7649    9.3312 -213.1844    9.2438 -212.9117    9.5237 -212.9326    9.5144 -212.8469    9.4929
  3.320 -200.2613    7.5555 -200.9120    7.6736 -200.2908    7.5902 -200.1264    7.8105 -200.1501    7.7839 -200.0755    7.7676
  3.330 -187.5967    6.0979 -188.3010    6.2042 -187.6237    6.1264 -187.5644    6.2785 -187.5789    6.2519 -187.5178    6.2375
  3.340 -174.9253    4.8134 -175.7070    4.9149 -174.9512    4.8463 -174.9974    4.9217 -174.9918    4.9216 -174.9453    4.9017
  3.350 -161.9052    3.7531 -162.8005    3.8517 -161.9337    3.8046 -162.0975    3.7878 -162.0736    3.8473 -162.0311    3.8143
  3.360 -148.1938    3.1403 -149.2472    3.2308 -148.2334    3.2292 -148.5211    3.0761 -148.4717    3.2172 -148.4282    3.1845
  3.370 -133.3859    3.1436 -134.6667    3.2203 -133.4524    3.2947 -133.8478    2.9595 -133.7418    3.2454 -133.7144    3.2137
  3.380 -116.6932    4.1675 -118.3216    4.2023 -116.8174    4.4174 -117.2987    3.8456 -117.1192    4.4065 -117.1219    4.3582
  3.390  -96.9398    7.2207  -99.1183    7.1210  -97.1873    7.6232  -97.7071    6.7352  -97.4789    7.8128  -97.5228    7.7126
  3.400  -72.4079   14.6689  -75.4741   14.1570  -72.9282   15.2935  -73.3690   13.9864  -73.2792   16.0538  -73.3608   15.8226
  3.410  -41.2329   32.4478  -45.6451   30.6874  -42.3775   33.3252  -42.4722   31.5286  -43.3744   35.4519  -43.3902   34.9169
  3.420   -6.3169   75.2842  -11.8590   69.9804   -8.8649   76.0705   -8.1416   73.9644  -13.3213   80.2361  -12.6996   79.2511
  3.430   -0.8308  164.3276   -2.5992  152.5646   -5.6226  162.7949   -3.5825  161.3140  -18.7059  162.4773  -16.5487  162.5228
  3.440  -96.4780  241.1660  -86.6811  231.5953  -98.2059  234.1323  -97.0424  235.1665 -106.4596  219.4693 -106.0232  221.5199
  3.450 -197.1901  197.9881 -187.6598  199.0817 -193.3488  193.9328 -194.3905  193.2372 -189.6320  181.3845 -190.2589  182.2008
  3.460 -219.6855  133.4120 -215.4168  136.7214 -216.4673  132.7127 -216.4186  130.7124 -210.3811  126.0078 -210.8224  126.3779
  3.470 -212.8636   93.4661 -211.0914   95.9450 -210.9212   93.6381 -210.0241   91.7646 -205.5052   89.9630 -205.8726   90.2177
  3.480 -200.8569   70.4858 -200.0279   71.9982 -199.6563   70.7310 -198.4537   69.1450 -195.1291   68.3918 -195.5172   68.5878
  3.490 -189.4157   56.7877 -188.4625   58.8380 -188.5901   56.9175 -187.2983   55.4680 -184.7424   55.2223 -185.1482   55.2631
  3.500 -179.8605   48.4701 -179.4304   49.2480 -179.1891   48.4471 -177.8108   46.9371 -175.7839   46.8944 -176.1440   46.8504
  3.510 -173.1239   43.3593 -172.5946   43.8450 -172.4171   43.1974 -170.7084   41.4503 -168.9482   41.5576 -169.3010   41.4102
  3.520 -170.2505   37.8698 -169.5413   38.4253 -169.2960   37.7764 -166.6686   36.0630 -165.1309   36.5020 -165.3686   36.1698
  3.530 -165.7637   28.0958 -165.2694   28.9037 -164.8413   28.4420 -161.5514   27.8630 -160.5714   28.5182 -160.5363   28.2228
  3.540 -156.5823   21.1626 -156.3927   21.8787 -156.0144   21.6447 -153.1906   22.0308 -152.6053   22.5152 -152.5219   22.3845
  3.550 -148.1730   18.0112 -148.1134   18.5664 -147.8251   18.4255 -145.5745   19.1168 -145.1492   19.4442 -145.0962   19.3820
  3.560 -141.3248   16.2047 -141.3186   16.6356 -141.0910   16.5360 -139.2296   17.2873 -138.8909   17.5197 -138.8612   17.4822
  3.570 -135.5246   14.8829 -135.5431   15.2225 -135.3557   15.1462 -133.7531   15.8903 -133.4751   16.0618 -133.4592   16.0347
  3.580 -130.4164   13.8004 -130.4475   14.0713 -130.2884   14.0106 -128.8678   14.7305 -128.6371   14.8595 -128.6293   14.8376
  3.590 -125.8009   12.8728 -125.8387   13.0906 -125.7006   13.0411 -124.4153   13.7341 -124.2231   13.8315 -124.2203   13.8126
  3.600 -121.5603   12.0618 -121.6018   12.2377 -121.4797   12.1966 -120.2999   12.8640 -120.1398   12.9370 -120.1401   12.9201
  3.610 -117.6193   11.3453 -117.6628   11.4875 -117.5533   11.4529 -116.4588   12.0968 -116.3255   12.1505 -116.3279   12.1350
  3.620 -113.9260   10.7081 -113.9706   10.8228 -113.8713   10.7933 -112.8475   11.4159 -112.7370   11.4541 -112.7407   11.4398
  3.630 -110.4426   10.1387 -110.4878   10.2309 -110.3967   10.2055 -109.4331   10.8087 -109.3419   10.8344 -109.3464   10.8210
  3.640 -107.1402    9.6283 -107.1858    9.7018 -107.1015    9.6797 -106.1897   10.2651 -106.1150   10.2807 -106.1201   10.2682
  3.650 -103.9959    9.1696 -104.0417    9.2275 -103.9631    9.2080 -103.0967    9.7770 -103.0361    9.7846 -103.0417    9.7729
  3.660 -100.9911    8.7568 -101.0372    8.8016 -100.9633    8.7843 -100.1371    9.3379 -100.0885    9.3393 -100.0944    9.3283
  3.670  -98.1103    8.3849  -98.1566    8.4188  -98.0868    8.4033  -97.2964    8.9425  -97.2581    8.9392  -97.2642    8.9289
  3.680  -95.3404    8.0500  -95.3869    8.0749  -95.3205    8.0608  -94.5625    8.5863  -94.5329    8.5798  -94.5392    8.5701
  3.690  -92.6698    7.7489  -92.7167    7.7664  -92.6533    7.7533  -91.9245    8.2658  -91.9023    8.2574  -91.9089    8.2483
  3.700  -90.0888    7.4789  -90.1360    7.4903  -90.0752    7.4782  -89.3732    7.9781  -89.3571    7.9690  -89.3639    7.9605
  3.710  -87.5883    7.2379  -87.6361    7.2446  -87.5775    7.2331  -86.9000    7.7209  -86.8891    7.7123  -86.8960    7.7044
  3.720  -85.1605    7.0244  -85.2091    7.0273  -85.1523    7.0164  -84.4974    7.4924  -84.4906    7.4853  -84.4977    7.4780
  3.730  -82.7982    6.8371  -82.8476    6.8373  -82.7925    6.8267  -82.1584    7.2912  -82.1549    7.2868  -82.1622    7.2800
  3.740  -80.4947    6.6753  -80.5451    6.6737  -80.4915    6.6633  -79.8767    7.1164  -79.8757    7.1158  -79.8832    7.1095
  3.750  -78.2439    6.5385  -78.2955    6.5361  -78.2432    6.5257  -77.6464    6.9676  -77.6472    6.9719  -77.6550    6.9660
  3.760  -76.0401    6.4268  -76.0931    6.4244  -76.0418    6.4140  -75.4620    6.8446  -75.4638    6.8549  -75.4718    6.8495
  3.770  -73.8779    6.3407  -73.9325    6.3390  -73.8822    6.3284  -73.3181    6.7479  -73.3204    6.7653  -73.3287    6.7604
  3.780  -71.7521    6.2809  -71.8086    6.2808  -71.7591    6.2699  -71.2098    6.6782  -71.2120    6.7040  -71.2207    6.6995
  3.790  -69.6579    6.2490  -69.7165    6.2511  -69.6678    6.2398  -69.1324    6.6369  -69.1340    6.6723  -69.1430    6.6682
  3.800  -67.5906    6.2466  -67.6516    6.2520  -67.6035    6.2401  -67.0813    6.6257  -67.0818    6.6721  -67.0912    6.6684
  3.810  -65.5457    6.2766  -65.6094    6.2858  -65.5619    6.2732  -65.0521    6.6473  -65.0511    6.7061  -65.0610    6.7027
  3.820  -63.5190    6.3420  -63.5858    6.3561  -63.5389    6.3426  -63.0409    6.7048  -63.0380    6.7776  -63.0482    6.7745
  3.830  -61.5064    6.4471  -61.5768    6.4668  -61.5304    6.4523  -61.0436    6.8023  -61.0384    6.8909  -61.0492    6.8881
  3.840  -59.5045    6.5970  -59.5789    6.6233  -59.5329    6.6076  -59.0569    6.9451  -59.0492    7.0513  -59.0605    7.0487
  3.850  -57.5100    6.7982  -57.5891    6.8320  -57.5435    6.8149  -57.0777    7.1394  -57.0674    7.2652  -57.0793    7.2628
  3.860  -55.5206    7.0584  -55.6051    7.1007  -55.5598    7.0820  -55.1040    7.3931  -55.0910    7.5408  -55.1036    7.5384
  3.870  -53.5351    7.3873  -53.6257    7.4392  -53.5808    7.4186  -53.1346    7.7155  -53.1191    7.8876  -53.1323    7.8853
  3.880  -51.5538    7.7962  -51.6516    7.8588  -51.6070    7.8360  -51.1701    8.1181  -51.1525    8.3174  -51.1664    8.3151
  3.890  -49.5796    8.2988  -49.6856    8.3733  -49.6413    8.3479  -49.2136    8.6144  -49.1946    8.8439  -49.2092    8.8413
  3.900  -47.6186    8.9110  -47.7342    8.9984  -47.6902    8.9701  -47.2714    9.2200  -47.2521    9.4830  -47.2676    9.4801
  3.910  -45.6818    9.6504  -45.8087    9.7522  -45.7651    9.7204  -45.3552    9.9524  -45.3371   10.2525  -45.3534   10.2491
  3.920  -43.7873   10.5364  -43.9273   10.6537  -43.8839   10.6178  -43.4829   10.8305  -43.4685   11.1714  -43.4855   11.1673
  3.930  -41.9618   11.5877  -42.1171   11.7218  -42.0740   11.6809  -41.6818   11.8725  -41.6742   12.2579  -41.6920   12.2529
  3.940  -40.2436   12.8198  -40.4168   12.9716  -40.3739   12.9247  -39.9904   13.0932  -39.9938   13.5266  -40.0121   13.5204
  3.950  -38.6842   14.2396  -38.8782   14.4101  -38.8352   14.3559  -38.4602   14.4985  -38.4800   14.9828  -38.4986   14.9752
  3.960  -37.3481   15.8379  -37.5663   16.0278  -37.5227   15.9644  -37.1556   16.0783  -37.1979   16.6151  -37.2166   16.6059
  3.970  -36.3086   17.5798  -36.5547   17.7895  -36.5094   17.7148  -36.1492   17.7965  -36.2209   18.3858  -36.2391   18.3749
  3.980  -35.6368   19.3957  -35.9150   19.6250  -35.8659   19.5367  -35.5109   19.5825  -35.6187   20.2219  -35.6360   20.2093
  3.990  -35.3831   21.1768  -35.6978   21.4249  -35.6417   21.3206  -35.2895   21.3268  -35.4387   22.0118  -35.4546   21.9977
  4.000  -35.5535   22.7829  -35.9095   23.0484  -35.8417   22.9266  -35.4892   22.8897  -35.6825   23.6141  -35.6965   23.5988
  4.010  -36.0908   24.0665  -36.4927   24.3472  -36.4073   24.2078  -36.0512   24.1249  -36.2877   24.8820  -36.2995   24.8661
  4.020  -36.8719   24.9087  -37.3242   25.2011  -37.2150   25.0465  -36.8520   24.9150  -37.1271   25.7000  -37.1367   25.6842
  4.030  -37.7300   25.2525  -38.2361   25.5524  -38.0979   25.3874  -37.7250   25.2046  -38.0315   26.0160  -38.0390   26.0008
  4.040  -38.4930   25.1162  -39.0554   25.4195  -38.8848   25.2503  -38.4992   25.0133  -38.8292   25.8537  -38.8350   25.8395
  4.050  -39.0214   24.5821  -39.6415   24.8849  -39.4379   24.7181  -39.0366   24.4232  -39.3830   25.2992  -39.3875   25.2863
  4.060  -39.2292   23.7665  -39.9082   24.0659  -39.6727   23.9076  -39.2526   23.5501  -39.6102   24.4716  -39.6138   24.4600
  4.070  -39.0840   22.7896  -39.8237   23.0837  -39.5588   22.9383  -39.1155   22.5129  -39.4820   23.4919  -39.4850   23.4817
  4.080  -38.5938   21.7545  -39.3968   22.0419  -39.1057   21.9126  -38.6339   21.4133  -39.0093   22.4634  -39.0121   22.4544
  4.090  -37.7899   20.7393  -38.6604   21.0185  -38.3460   20.9069  -37.8387   20.3273  -38.2260   21.4633  -38.2287   21.4552
  4.100  -36.7123   19.7969  -37.6563   20.0653  -37.3211   19.9722  -36.7694   19.3060  -37.1744   20.5432  -37.1771   20.5360
  4.110  -35.4008   18.9602  -36.4260   19.2130  -36.0717   19.1387  -35.4648   18.3802  -35.8960   19.7346  -35.8989   19.7281
  4.120  -33.8900   18.2480  -35.0049   18.4771  -34.6328   18.4213  -33.9574   17.5660  -34.4271   19.0539  -34.4303   19.0480
  4.130  -32.2080   17.6701  -33.4209   17.8619  -33.0315   17.8245  -32.2719   16.8707  -32.7966   18.5078  -32.8002   18.5022
  4.140  -30.3767   17.2307  -31.6926   17.3648  -31.2861   17.3455  -30.4247   16.2962  -31.0261   18.0961  -31.0304   18.0906
  4.150  -28.4134   16.9307  -29.8292   16.9781  -29.4052   16.9763  -28.4242   15.8421  -29.1304   17.8136  -29.1356   17.8078
  4.160  -26.3334   16.7655  -27.8277   16.6901  -27.3855   16.7054  -26.2717   15.5078  -27.1167   17.6494  -27.1231   17.6423
  4.170  -24.1501   16.7196  -25.6693   16.4888  -25.2071   16.5198  -23.9614   15.2939  -24.9820   17.5837  -24.9899   17.5737
  4.180  -21.8653   16.7523  -23.3129   16.3680  -22.8278   16.4128  -21.4809   15.2028  -22.7022   17.5839  -22.7107   17.5682
  4.190  -19.4292   16.7901  -20.6927   16.3435  -20.1785   16.3994  -18.8104   15.2405  -20.2027   17.6096  -20.2081   17.5849
  4.200  -16.6756   16.7905  -17.7291   16.4751  -17.1750   16.5410  -15.9221   15.4173  -17.3226   17.6705  -17.3169   17.6364
  4.210  -13.3902   16.8966  -14.3633   16.8746  -13.7539   16.9556  -12.7790   15.7504  -13.8808   17.9399  -13.8563   17.9032
  4.220   -9.5465   17.3762  -10.5845   17.6803   -9.9078   17.7871   -9.3339   16.2656   -9.8675   18.7038   -9.8235   18.6758
  4.230   -5.2557   18.3614   -6.4323   19.0228   -5.6705   19.1638   -5.5266   16.9994   -5.4192   20.1379   -5.3623   20.1266
  4.240   -0.5441   19.8724   -1.9597   20.9838   -1.0916   21.1856   -1.2784   18.0033   -0.6230   22.2999   -0.5611   22.3071
  4.250    4.6713   21.9637    2.8362   23.6365    3.8223   23.9291    3.5140   19.3526    4.5345   25.2618    4.5962   25.2858
  4.260   10.5316   24.7827    8.0011   27.1170    9.1208   27.5355    8.9879   21.1588   10.1213   29.1912   10.1803   29.2299
  4.270   17.2103   28.5961   13.5846   31.6624   14.8570   32.2565   15.3268   23.5907   16.2090   34.3933   16.2645   34.4456
  4.280   24.9024   33.8426   19.5953   37.6407   21.0395   38.4852   22.7796   26.9116   22.8204   41.3588   22.8718   41.4249
  4.290   33.7972   41.2363   25.9349   45.5878   27.5618   46.7967   31.6863   31.5478   29.8398   50.8389   29.8860   50.9203
  4.300   43.9766   51.9558   32.2770   56.2390   34.0688   57.9868   42.5093   38.2207   36.8205   63.9492   36.8590   64.0485
  4.310   55.1017   67.9527   37.8595   70.5043   39.7199   73.0534   55.8523   48.2176   42.5584   82.2482   42.5842   82.3686
  4.320   65.5216   92.2941   41.2073   89.2696   42.8511   92.9811   72.3758   63.9723   44.2025  107.5327   44.2076  107.6759
  4.330   70.1278  128.7415   40.0144  112.9267   40.7552  118.1772   92.2052   90.3544   35.7656  140.4073   35.7410  140.5740
  4.340   57.5331  177.6108   31.5245  141.1862   29.9921  147.9707  112.0172  137.2676    7.7835  175.3507    7.7114  175.5520
  4.350   14.4188  226.7700   11.2605  174.5256    5.4887  181.3460  112.6646  220.9246  -43.3095  193.9108  -43.5099  194.1273
  4.360  -62.1586  252.7639  -36.1077  207.6950  -46.2702  210.0834   31.7758  330.1374  -97.1529  178.9979  -97.4799  179.0525
  4.370 -149.9337  220.2383 -111.2535  198.3861 -119.5766  193.7855 -142.0784  331.7173 -128.8229  143.1567 -129.0595  143.0294
  4.380 -184.8940  147.5344 -150.7732  144.2185 -153.7385  138.1967 -227.4536  213.8408 -138.4576  107.8040 -138.5542  107.6582
  4.390 -177.8159   93.6049 -152.4852   98.8362 -152.7060   94.4484 -221.1617  122.4364 -136.5204   80.6772 -136.5509   80.5783
  4.400 -161.2275   62.2998 -143.1845   70.4195 -142.5436   67.5601 -194.9301   73.5696 -130.1270   61.3381 -130.1390   61.2790
  4.410 -145.4260   43.9520 -132.5495   52.5340 -131.7410   50.6727 -170.6333   47.6143 -122.5674   47.6932 -122.5772   47.6585
  4.420 -132.1621   32.5803 -122.8212   40.6999 -122.0618   39.4571 -151.2360   32.9052 -115.1565   37.9491 -115.1684   37.9287
  4.430 -121.2760   25.1348 -114.3586   32.4994 -113.7033   31.6442 -136.0432   23.9826 -108.3517   30.8535 -108.3663   30.8417
  4.440 -112.3067   20.0279 -107.0753   26.5989 -106.5267   25.9931 -124.0137   18.2445 -102.2606   25.5756 -102.2775   25.5693
  4.450 -104.8316   16.3878 -100.7961   22.2211 -100.3414   21.7805 -114.3156   14.3718  -96.8559   21.5679  -96.8747   21.5654
  4.460  -98.5193   13.7091  -95.3492   18.8891  -94.9731   18.5609 -106.3496   11.6524  -92.0653   18.4659  -92.0856   18.4660
  4.470  -93.1195   11.6841  -90.5882   16.2977  -90.2764   16.0479  -99.6919    9.6788  -87.8075   16.0224  -87.8290   16.0246
  4.480  -88.4445   10.1182  -86.3934   14.2443  -86.1340   14.0506  -94.0404    8.2062  -84.0063   14.0671  -84.0287   14.0709
  4.490  -84.3526    8.8834  -82.6685   12.5907  -82.4517   12.4378  -89.1763    7.0814  -80.5947   12.4800  -80.6179   12.4852
  4.500  -80.7355    7.8930  -79.3364   11.2400  -79.1543   11.1173  -84.9386    6.2047  -77.5157   11.1753  -77.5398   11.1817
  4.510  -77.5096    7.0868  -76.3348   10.1228  -76.1811   10.0227  -81.2068    5.5092  -74.7217   10.0903  -74.7464   10.0977
  4.520  -74.6095    6.4219  -73.6136    9.1882  -73.4832    9.1054  -77.8890    4.9490  -72.1727    9.1785  -72.1980    9.1869
  4.530  -71.9834    5.8673  -71.1318    8.3986  -71.0207    8.3291  -74.9138    4.4917  -69.8353    8.4051  -69.8612    8.4145
  4.540  -69.5898    5.3998  -68.8559    7.7254  -68.7608    7.6663  -72.2257    4.1139  -67.6817    7.7435  -67.7082    7.7537
  4.550  -67.3952    5.0020  -66.7583    7.1467  -66.6765    7.0957  -69.7802    3.7984  -65.6885    7.1731  -65.7156    7.1842
  4.560  -65.3722    4.6609  -64.8159    6.6456  -64.7452    6.6011  -67.5416    3.5324  -63.8360    6.6779  -63.8637    6.6899
  4.570  -63.4982    4.3662  -63.0094    6.2089  -62.9479    6.1695  -65.4809    3.3063  -62.1075    6.2452  -62.1358    6.2580
  4.580  -61.7544    4.1098  -61.3227    5.8259  -61.2689    5.7906  -63.5744    3.1126  -60.4887    5.8649  -60.5177    5.8786
  4.590  -60.1250    3.8854  -59.7418    5.4881  -59.6945    5.4561  -61.8023    2.9455  -58.9675    5.5290  -58.9971    5.5434
  4.600  -58.5967    3.6880  -58.2551    5.1888  -58.2131    5.1594  -60.1480    2.8005  -57.5335    5.2307  -57.5637    5.2460
  4.610  -57.1582    3.5134  -56.8525    4.9223  -56.8150    4.8950  -58.5978    2.6741  -56.1775    4.9647  -56.2084    4.9808
  4.620  -55.7998    3.3584  -55.5252    4.6841  -55.4914    4.6585  -57.1398    2.5632  -54.8917    4.7266  -54.9233    4.7435
  4.630  -54.5132    3.2203  -54.2657    4.4703  -54.2350    4.4460  -55.7639    2.4656  -53.6693    4.5126  -53.7017    4.5304
  4.640  -53.2912    3.0967  -53.0674    4.2779  -53.0391    4.2547  -54.4616    2.3794  -52.5043    4.3196  -52.5375    4.3383
  4.650  -52.1274    2.9859  -51.9246    4.1041  -51.8983    4.0817  -53.2253    2.3031  -51.3914    4.1452  -51.4254    4.1647
  4.660  -51.0163    2.8862  -50.8322    3.9467  -50.8074    3.9249  -52.0485    2.2353  -50.3260    3.9870  -50.3609    4.0075
  4.670  -49.9532    2.7965  -49.7856    3.8039  -49.7620    3.7826  -50.9256    2.1750  -49.3039    3.8433  -49.3396    3.8646
  4.680  -48.9338    2.7154  -48.7810    3.6740  -48.7581    3.6530  -49.8516    2.1213  -48.3214    3.7125  -48.3581    3.7347
  4.690  -47.9542    2.6422  -47.8147    3.5556  -47.7924    3.5348  -48.8221    2.0734  -47.3753    3.5931  -47.4129    3.6163
  4.700  -47.0111    2.5760  -46.8836    3.4476  -46.8615    3.4270  -47.8331    2.0308  -46.4626    3.4841  -46.5012    3.5082
  4.710  -46.1015    2.5161  -45.9849    3.3490  -45.9627    3.3283  -46.8813    1.9929  -45.5805    3.3844  -45.6202    3.4095
  4.720  -45.2226    2.4619  -45.1159    3.2589  -45.0935    3.2381  -45.9635    1.9593  -44.7269    3.2932  -44.7676    3.3193
  4.730  -44.3721    2.4130  -44.2744    3.1764  -44.2516    3.1556  -45.0769    1.9296  -43.8993    3.2096  -43.9412    3.2369
  4.740  -43.5476    2.3690  -43.4583    3.1010  -43.4348    3.0800  -44.2190    1.9034  -43.0960    3.1332  -43.1390    3.1615
  4.750  -42.7472    2.3293  -42.6656    3.0322  -42.6413    3.0109  -43.3875    1.8805  -42.3150    3.0632  -42.3593    3.0926
  4.760  -41.9691    2.2938  -41.8946    2.9692  -41.8693    2.9476  -42.5804    1.8607  -41.5546    2.9992  -41.6003    3.0297
  4.770  -41.2116    2.2621  -41.1436    2.9119  -41.1172    2.8899  -41.7959    1.8437  -40.8135    2.9407  -40.8605    2.9725
  4.780  -40.4731    2.2341  -40.4113    2.8597  -40.3836    2.8373  -41.0321    1.8294  -40.0902    2.8874  -40.1386    2.9204
  4.790  -39.7523    2.2094  -39.6963    2.8123  -39.6671    2.7895  -40.2876    1.8177  -39.3833    2.8389  -39.4332    2.8732
  4.800  -39.0477    2.1880  -38.9972    2.7695  -38.9664    2.7462  -39.5608    1.8085  -38.6917    2.7950  -38.7431    2.8306
  4.810  -38.3583    2.1696  -38.3129    2.7309  -38.2804    2.7072  -38.8505    1.8016  -38.0142    2.7554  -38.0673    2.7924
  4.820  -37.6828    2.1543  -37.6424    2.6965  -37.6079    2.6722  -38.1553    1.7970  -37.3498    2.7198  -37.4046    2.7583
  4.830  -37.0203    2.1418  -36.9845    2.6659  -36.9480    2.6411  -37.4742    1.7946  -36.6975    2.6882  -36.7541    2.7281
  4.840  -36.3697    2.1321  -36.3384    2.6391  -36.2996    2.6136  -36.8060    1.7944  -36.0563    2.6602  -36.1148    2.7017
  4.850  -35.7300    2.1251  -35.7030    2.6158  -35.6620    2.5898  -36.1497    1.7964  -35.4255    2.6359  -35.4860    2.6790
  4.860  -35.1005    2.1209  -35.0777    2.5961  -35.0341    2.5694  -35.5044    1.8005  -34.8041    2.6151  -34.8667    2.6599
  4.870  -34.4802    2.1193  -34.4614    2.5798  -34.4152    2.5524  -34.8691    1.8068  -34.1914    2.5977  -34.2561    2.6442
  4.880  -33.8683    2.1203  -33.8536    2.5669  -33.8045    2.5387  -34.2429    1.8153  -33.5865    2.5836  -33.6536    2.6320
  4.890  -33.2642    2.1241  -33.2533    2.5573  -33.2013    2.5283  -33.6252    1.8259  -32.9888    2.5728  -33.0583    2.6231
  4.900  -32.6670    2.1305  -32.6600    2.5510  -32.6047    2.5212  -33.0150    1.8388  -32.3976    2.5653  -32.4696    2.6176
  4.910  -32.0760    2.1397  -32.0728    2.5479  -32.0142    2.5173  -32.4116    1.8541  -31.8121    2.5610  -31.8869    2.6155
  4.920  -31.4906    2.1517  -31.4911    2.5482  -31.4290    2.5167  -31.8143    1.8717  -31.2317    2.5600  -31.3093    2.6167
  4.930  -30.9101    2.1665  -30.9143    2.5519  -30.8484    2.5194  -31.2223    1.8917  -30.6558    2.5624  -30.7364    2.6214
  4.940  -30.3338    2.1844  -30.3417    2.5589  -30.2719    2.5255  -30.6349    1.9143  -30.0836    2.5680  -30.1674    2.6296
  4.950  -29.7610    2.2053  -29.7727    2.5694  -29.6986    2.5350  -30.0515    1.9396  -29.5146    2.5771  -29.6018    2.6413
  4.960  -29.1911    2.2294  -29.2066    2.5836  -29.1281    2.5481  -29.4714    1.9678  -28.9480    2.5898  -29.0388    2.6566
  4.970  -28.6235    2.2569  -28.6429    2.6014  -28.5596    2.5648  -28.8939    1.9988  -28.3834    2.6060  -28.4780    2.6758
  4.980  -28.0576    2.2879  -28.0808    2.6231  -27.9926    2.5853  -28.3182    2.0331  -27.8200    2.6261  -27.9186    2.6989
  4.990  -27.4926    2.3228  -27.5198    2.6489  -27.4262    2.6099  -27.7438    2.0706  -27.2572    2.6500  -27.3602    2.7261
  5.000  -26.9279    2.3616  -26.9592    2.6790  -26.8600    2.6386  -27.1700    2.1118  -26.6943    2.6781  -26.8019    2.7576
  5.010  -26.3630    2.4046  -26.3984    2.7135  -26.2933    2.6718  -26.5960    2.1568  -26.1308    2.7106  -26.2432    2.7937
  5.020  -25.7971    2.4523  -25.8367    2.7529  -25.7252    2.7097  -26.0212    2.2058  -25.5658    2.7477  -25.6835    2.8347
  5.030  -25.2295    2.5049  -25.2735    2.7974  -25.1553    2.7527  -25.4448    2.2594  -24.9987    2.7897  -25.1220    2.8809
  5.040  -24.6596    2.5629  -24.7081    2.8474  -24.5827    2.8011  -24.8662    2.3177  -24.4288    2.8369  -24.5581    2.9326
  5.050  -24.0866    2.6267  -24.1397    2.9033  -24.0067    2.8553  -24.2844    2.3813  -23.8553    2.8899  -23.9911    2.9903
  5.060  -23.5098    2.6968  -23.5678    2.9657  -23.4266    2.9159  -23.6989    2.4506  -23.2776    2.9489  -23.4203    3.0545
  5.070  -22.9285    2.7738  -22.9915    3.0351  -22.8416    2.9834  -23.1087    2.5262  -22.6947    3.0147  -22.8449    3.1257
  5.080  -22.3420    2.8585  -22.4101    3.1123  -22.2508    3.0585  -22.5130    2.6086  -22.1058    3.0876  -22.2642    3.2046
  5.090  -21.7493    2.9517  -21.8229    3.1979  -21.6535    3.1419  -21.9109    2.6987  -21.5102    3.1686  -21.6774    3.2920
  5.100  -21.1498    3.0542  -21.2290    3.2930  -21.0489    3.2345  -21.3016    2.7972  -20.9068    3.2583  -21.0835    3.3887
  5.110  -20.5427    3.1672  -20.6276    3.3984  -20.4359    3.3373  -20.6842    2.9050  -20.2948    3.3576  -20.4819    3.4957
  5.120  -19.9272    3.2919  -20.0181    3.5155  -19.8139    3.4516  -20.0576    3.0234  -19.6731    3.4678  -19.8717    3.6142
  5.130  -19.3024    3.4297  -19.3996    3.6457  -19.1820    3.5786  -19.4209    3.1534  -19.0409    3.5900  -19.2520    3.7456
  5.140  -18.6678    3.5823  -18.7715    3.7906  -18.5392    3.7200  -18.7732    3.2967  -18.3972    3.7257  -18.6220    3.8914
  5.150  -18.0228    3.7517  -18.1332    3.9522  -17.8850    3.8777  -18.1136    3.4550  -17.7409    3.8766  -17.9809    4.0535
  5.160  -17.3669    3.9402  -17.4842    4.1327  -17.2187    4.0538  -17.4410    3.6302  -17.0712    4.0447  -17.3282    4.2341
  5.170  -16.7000    4.1504  -16.8244    4.3349  -16.5399    4.2508  -16.7549    3.8246  -16.3873    4.2323  -16.6632    4.4358
  5.180  -16.0225    4.3853  -16.1540    4.5617  -15.8487    4.4717  -16.0547    4.0411  -15.6885    4.4422  -15.9859    4.6616
  5.190  -15.3351    4.6484  -15.4739    4.8166  -15.1455    4.7197  -15.3403    4.2825  -14.9747    4.6773  -15.2964    4.9149
  5.200  -14.6396    4.9434  -14.7857    5.1036  -14.4316    4.9983  -14.6118    4.5525  -14.2461    4.9411  -14.5958    5.1998
  5.210  -13.9391    5.2743  -14.0924    5.4268  -13.7093    5.3115  -13.8704    4.8548  -13.5034    5.2375  -13.8858    5.5205
  5.220  -13.2380    5.6449  -13.3987    5.7905  -12.9825    5.6629  -13.1180    5.1933  -12.7486    5.5705  -13.1697    5.8821
  5.230  -12.5432    6.0585  -12.7112    6.1983  -12.2566    6.0553  -12.3581    5.5719  -11.9847    5.9439  -12.4525    6.2891
  5.240  -11.8637    6.5163  -12.0396    6.6521  -11.5393    6.4900  -11.5953    5.9935  -11.2163    6.3608  -11.7418    6.7457
  5.250  -11.2112    7.0163  -11.3962    7.1508  -10.8402    6.9649  -10.8360    6.4595  -10.4490    6.8227  -11.0478    7.2544
  5.260  -10.5990    7.5512  -10.7955    7.6879  -10.1692    7.4727  -10.0870    6.9684   -9.6893    7.3284  -10.3836    7.8144
  5.270  -10.0400    8.1058  -10.2522    8.2487   -9.5344    7.9990   -9.3548    7.5149   -8.9426    7.8731   -9.7645    8.4200
  5.280   -9.5424    8.6552   -9.7772    8.8091   -8.9362    8.5222   -8.6420    8.0904   -8.2104    8.4491   -9.2069    9.0584
  5.290   -9.1038    9.1659   -9.3722    9.3351   -8.3615    9.0167   -7.9455    8.6854   -7.4877    9.0489   -8.7268    9.7081
  5.300   -8.7049    9.5993   -9.0234    9.7857   -7.7788    9.4634   -7.2573    9.2949   -6.7638    9.6718   -8.3384   10.3352
  5.310   -8.3041    9.9182   -8.6955   10.1179   -7.1423    9.8646   -6.5709    9.9205   -6.0317   10.3293   -8.0479   10.8833
  5.320   -7.8308   10.0983   -8.3225   10.2952   -6.4123   10.2558   -5.8896   10.5630   -5.3046   11.0374   -7.8277   11.2620
  5.330   -7.1813   10.1576   -7.7983   10.3175   -5.5888   10.6938   -5.2191   11.2057   -4.6175   11.7846   -7.5586   11.3743
  5.340   -6.2655   10.2009   -7.0150   10.2692   -4.7201   11.2003   -4.5414   11.8151   -3.9827   12.5097   -7.0207   11.2335
  5.350   -5.1065   10.3725   -5.9563   10.2934   -3.8315   11.7260   -3.8025   12.3719   -3.3383   13.1471   -6.0515   11.0399
  5.360   -3.8008   10.7191   -4.6936   10.4741   -2.8640   12.2228   -2.9348   12.8963   -2.5779   13.6992   -4.6842   11.0318
  5.370   -2.3853   11.2137   -3.2805   10.8210   -1.7274   12.7183   -1.8856   13.4441   -1.6191   14.2360   -3.0561   11.3265
  5.380   -0.8404   11.8537   -1.7276   11.3386   -0.3698   13.2946   -0.6293   14.0897   -0.4281   14.8529   -1.2797   11.9402
  5.390    0.8537   12.6752   -0.0347   12.0511    1.2143   14.0413    0.8320   14.9104    0.9902   15.6418    0.5850   12.8596
  5.400    2.6987   13.7288    1.7927   12.9926    3.0037   15.0336    2.4762   15.9760    2.6076   16.6805    2.5118   14.0778
  5.410    4.6837   15.0663    3.7447   14.1999    4.9697   16.3330    4.2721   17.3464    4.3864   18.0327    4.4908   15.6048
  5.420    6.7935   16.7414    5.8113   15.7137    7.0851   17.9972    6.1862   19.0776    6.2876   19.7558    6.5155   17.4692
  5.430    9.0098   18.8159    7.9824   17.5843    9.3240   20.0915    8.1829   21.2305    8.2708   21.9105    8.5749   19.7187
  5.440   11.3075   21.3671   10.2435   19.8776   11.6545   22.6978   10.2185   23.8778   10.2880   24.5686   10.6454   22.4200
  5.450   13.6456   24.4937   12.5691   22.6795   14.0283   25.9215   12.2317   27.1083   12.2733   27.8169   12.6828   25.6592
  5.460   15.9536   28.3195   14.9115   26.1004   16.3646   29.8951   14.1289   31.0279   14.1286   31.7577   14.6107   29.5403
  5.470   18.1118   32.9939   17.1863   30.2780   18.5277   34.7781   15.7667   35.7554   15.7059   36.5033   16.3049   34.1820
  5.480   19.9226   38.6851   19.2480   35.3760   20.2938   40.7483   16.9273   41.4089   16.7849   42.1612   17.5722   39.7070
  5.490   21.0715   45.5569   20.8569   41.5731   21.3084   47.9720   17.2920   48.0767   17.0498   48.8041   18.1239   46.2186
  5.500   21.0813   53.7143   21.6327   49.0303   21.0380   56.5384   16.4163   55.7613   16.0721   56.4159   17.5476   53.7538
  5.510   19.2788   63.0936   21.0035   57.8143   18.7422   66.3304   13.7289   64.2857   13.3155   64.8095   15.2916   62.1983
  5.520   14.8275   73.2793   18.1840   67.7483   13.5330   76.8207    8.5934   73.1598    8.1956   73.5160   10.7001   71.1512
  5.530    6.9304   83.2826   12.2668   78.1809    4.6306   86.8480    0.4977   81.4499    0.2350   81.6770    3.1727   79.7629
  5.540   -4.7096   91.4605    2.5588   87.7678   -8.1107   94.5913  -10.5936   87.7840  -10.6470   88.0298   -7.4796   86.6757
  5.550  -19.3108   95.8928  -10.8087   94.5614  -23.6198   98.0731  -23.8546   90.6964  -23.7768   91.1514  -20.5757   90.3178
  5.560  -34.8695   95.3020  -26.3761   96.7285  -39.5988   96.1882  -37.5764   89.3223  -37.5938   90.0564  -34.4386   89.6394
  5.570  -48.9194   89.8758  -41.6630   93.6281  -53.4804   89.4636  -49.7884   83.9573  -50.1088   84.8349  -46.9993   84.7925
  5.580  -59.7057   81.1426  -54.3487   86.2506  -63.6557   79.7215  -59.1326   75.9057  -59.7931   76.6937  -56.7615   77.0485
  5.590  -66.7440   71.0370  -63.2932   76.5310  -69.8918   69.0019  -65.2580   66.7567  -66.1412   67.2861  -63.2785   68.0404
  5.600  -70.5176   61.0679  -68.5975   66.3002  -72.8730   58.7618  -68.5776   57.7510  -69.5224   57.9742  -66.9232   59.0695
  5.610  -71.8831   52.0672  -71.0302   56.7350  -73.5561   49.7237  -69.8056   49.5842  -70.6865   49.5395  -68.4034   50.8805
  5.620  -71.6600   44.3323  -71.4797   48.3659  -72.7852   42.0859  -69.6322   42.5153  -70.3783   42.2736  -68.4172   43.7663
  5.630  -70.4759   37.8558  -70.6852   41.3060  -71.1757   35.7738  -68.5940   36.5473  -69.1770   36.1796  -67.5148   37.7516
  5.640  -68.7598   32.4974  -69.1761   35.4616  -69.1330   30.6082  -67.0645   31.5673  -67.4815   31.1325  -66.0843   32.7367
  5.650  -66.7859   28.0798  -67.3033   30.6627  -66.9088   26.3926  -65.2868   27.4261  -65.5479   26.9703  -64.3840   28.5794
  5.660  -64.7218   24.4329  -65.2885   26.7276  -64.6543   22.9484  -63.4120   23.9774  -63.5340   23.5364  -62.5799   25.1346
  5.670  -62.6660   21.4096  -63.2664   23.4886  -62.4580   20.1251  -61.5302   21.0928  -61.5344   20.6944  -60.7755   22.2694
  5.680  -60.6738   18.8889  -61.3132   20.7994  -60.3701   17.7983  -59.6921   18.6657  -59.6041   18.3303  -59.0310   19.8670
  5.690  -58.7742   16.7734  -59.4643   18.5382  -58.4159   15.8651  -57.9244   16.6109  -57.7725   16.3501  -57.3751   17.8280
  5.700  -56.9800   14.9858  -57.7272   16.6091  -56.6031   14.2409  -56.2397   14.8614  -56.0520   14.6768  -55.8138   16.0733
  5.710  -55.2945   13.4648  -56.0939   14.9425  -54.9263   12.8585  -54.6434   13.3647  -54.4437   13.2489  -54.3404   14.5450
  5.720  -53.7158   12.1620  -54.5527   13.4910  -53.3731   11.6672  -53.1369   12.0785  -52.9417   12.0189  -52.9444   13.2036
  5.730  -52.2389   11.0390  -53.0941   12.2224  -51.9293   10.6305  -51.7193   10.9682  -51.5375   10.9508  -51.6176   12.0224
  5.740  -50.8575   10.0651  -51.7126   11.1122  -50.5822    9.7221  -50.3876   10.0049  -50.2226   10.0174  -50.3554   10.9813
  5.750  -49.5648    9.2157  -50.4051   10.1397  -49.3212    8.9225  -49.1375    9.1648  -48.9891    9.1976  -49.1556   10.0632
  5.760  -48.3540    8.4709  -49.1692    9.2865  -48.1381    8.2160  -47.9638    8.4283  -47.8303    8.4744  -48.0167    9.2527
  5.770  -47.2184    7.8146  -48.0022    8.5362  -47.0262    7.5897  -46.8612    7.7792  -46.7401    7.8339  -46.9367    8.5358
  5.780  -46.1518    7.2334  -46.9007    7.8742  -45.9794    7.0329  -45.8241    7.2043  -45.7132    7.2645  -45.9136    7.8999
  5.790  -45.1484    6.7166  -45.8613    7.2881  -44.9927    6.5361  -44.8472    6.6927  -44.7445    6.7566  -44.9445    7.3340
  5.800  -44.2030    6.2550  -44.8799    6.7672  -44.0613    6.0915  -43.9258    6.2355  -43.8295    6.3017  -44.0265    6.8287
  5.810  -43.3107    5.8411  -43.9526    6.3024  -43.1809    5.6922  -43.0552    5.8253  -42.9641    5.8929  -43.1563    6.3759
  5.820  -42.4672    5.4686  -43.0756    5.8860  -42.3475    5.3326  -42.2313    5.4558  -42.1443    5.5244  -42.3308    5.9687
  5.830  -41.6684    5.1322  -42.2450    5.5117  -41.5574    5.0076  -41.4504    5.1219  -41.3667    5.1911  -41.5469    5.6013
  5.840  -40.9108    4.8274  -41.4575    5.1740  -40.8074    4.7129  -40.7091    4.8190  -40.6281    4.8887  -40.8018    5.2687
  5.850  -40.1912    4.5503  -40.7098    4.8683  -40.0944    4.4451  -40.0043    4.5435  -39.9254    4.6135  -40.0926    4.9666
  5.860  -39.5065    4.2978  -39.9989    4.5906  -39.4155    4.2008  -39.3332    4.2921  -39.2561    4.3623  -39.4168    4.6914
  5.870  -38.8541    4.0669  -39.3221    4.3376  -38.7684    3.9776  -38.6932    4.0621  -38.6176    4.1325  -38.7720    4.4399
  5.880  -38.2316    3.8552  -38.6768    4.1065  -38.1506    3.7729  -38.0821    3.8511  -38.0077    3.9216  -38.1560    4.2096
  5.890  -37.6368    3.6607  -38.0607    3.8947  -37.5601    3.5848  -37.4977    3.6571  -37.4245    3.7277  -37.5669    3.9981
  5.900  -37.0677    3.4816  -37.4719    3.7002  -36.9949    3.4116  -36.9382    3.4783  -36.8660    3.5490  -37.0028    3.8034
  5.910  -36.5226    3.3162  -36.9082    3.5211  -36.4533    3.2517  -36.4019    3.3132  -36.3305    3.3839  -36.4620    3.6236
  5.920  -35.9997    3.1632  -36.3681    3.3557  -35.9337    3.1037  -35.8872    3.1603  -35.8165    3.2310  -35.9430    3.4574
  5.930  -35.4976    3.0214  -35.8499    3.2028  -35.4346    2.9666  -35.3926    3.0185  -35.3227    3.0892  -35.4443    3.3034
  5.940  -35.0149    2.8896  -35.3522    3.0610  -34.9547    2.8391  -34.9169    2.8867  -34.8476    2.9573  -34.9646    3.1603
  5.950  -34.5504    2.7670  -34.8735    2.9294  -34.4927    2.7206  -34.4588    2.7639  -34.3901    2.8346  -34.5027    3.0272
  5.960  -34.1029    2.6527  -34.4128    2.8068  -34.0476    2.6100  -34.0172    2.6495  -33.9491    2.7201  -34.0576    2.9032
  5.970  -33.6714    2.5459  -33.9688    2.6926  -33.6183    2.5068  -33.5912    2.5426  -33.5237    2.6131  -33.6282    2.7873
  5.980  -33.2548    2.4461  -33.5406    2.5859  -33.2039    2.4102  -33.1798    2.4425  -33.1128    2.5129  -33.2136    2.6790
  5.990  -32.8524    2.3525  -33.1272    2.4860  -32.8034    2.3197  -32.7821    2.3488  -32.7156    2.4191  -32.8129    2.5775
  6.000  -32.4632    2.2648  -32.7278    2.3925  -32.4161    2.2348  -32.3974    2.2608  -32.3314    2.3309  -32.4253    2.4822
  6.010  -32.0866    2.1823  -32.3414    2.3048  -32.0412    2.1550  -32.0249    2.1780  -31.9594    2.2481  -32.0501    2.3927
  6.020  -31.7218    2.1047  -31.9675    2.2223  -31.6780    2.0799  -31.6640    2.1002  -31.5990    2.1701  -31.6866    2.3086
  6.030  -31.3681    2.0316  -31.6052    2.1446  -31.3260    2.0091  -31.3140    2.0269  -31.2495    2.0966  -31.3342    2.2292
  6.040  -31.0251    1.9627  -31.2540    2.0715  -30.9844    1.9423  -30.9743    1.9576  -30.9103    2.0272  -30.9923    2.1544
  6.050  -30.6921    1.8975  -30.9133    2.0025  -30.6528    1.8793  -30.6445    1.8923  -30.5810    1.9616  -30.6603    2.0837
  6.060  -30.3686    1.8359  -30.5825    1.9373  -30.3307    1.8196  -30.3240    1.8304  -30.2609    1.8995  -30.3378    2.0169
  6.070  -30.0542    1.7776  -30.2611    1.8756  -30.0175    1.7631  -30.0123    1.7719  -29.9497    1.8408  -30.0242    1.9536
  6.080  -29.7483    1.7224  -29.9487    1.8172  -29.7128    1.7096  -29.7091    1.7164  -29.6470    1.7851  -29.7191    1.8936
  6.090  -29.4507    1.6700  -29.6448    1.7618  -29.4163    1.6588  -29.4139    1.6637  -29.3522    1.7322  -29.4222    1.8367
  6.100  -29.1608    1.6202  -29.3490    1.7093  -29.1274    1.6105  -29.1263    1.6137  -29.0651    1.6819  -29.1329    1.7827
  6.110  -28.8783    1.5729  -29.0608    1.6594  -28.8460    1.5646  -28.8460    1.5662  -28.7852    1.6341  -28.8511    1.7313
  6.120  -28.6029    1.5278  -28.7800    1.6119  -28.5716    1.5209  -28.5726    1.5210  -28.5123    1.5886  -28.5763    1.6824
  6.130  -28.3342    1.4850  -28.5063    1.5667  -28.3039    1.4793  -28.3059    1.4779  -28.2460    1.5452  -28.3082    1.6358
  6.140  -28.0720    1.4441  -28.2392    1.5237  -28.0426    1.4396  -28.0455    1.4368  -27.9861    1.5039  -28.0465    1.5914
  6.150  -27.8160    1.4051  -27.9785    1.4826  -27.7874    1.4017  -27.7913    1.3976  -27.7323    1.4644  -27.7910    1.5490
  6.160  -27.5659    1.3678  -27.7240    1.4434  -27.5382    1.3655  -27.5428    1.3602  -27.4842    1.4267  -27.5413    1.5086
  6.170  -27.3215    1.3323  -27.4753    1.4060  -27.2945    1.3309  -27.2999    1.3244  -27.2418    1.3906  -27.2973    1.4699
  6.180  -27.0825    1.2982  -27.2323    1.3702  -27.0563    1.2979  -27.0623    1.2902  -27.0047    1.3561  -27.0587    1.4329
  6.190  -26.8487    1.2657  -26.9946    1.3360  -26.8232    1.2662  -26.8299    1.2575  -26.7727    1.3231  -26.8253    1.3975
  6.200  -26.6199    1.2345  -26.7621    1.3032  -26.5952    1.2358  -26.6025    1.2261  -26.5456    1.2914  -26.5969    1.3635
  6.210  -26.3959    1.2046  -26.5345    1.2718  -26.3719    1.2067  -26.3797    1.1961  -26.3233    1.2611  -26.3733    1.3310
  6.220  -26.1766    1.1759  -26.3118    1.2417  -26.1531    1.1788  -26.1616    1.1673  -26.1056    1.2319  -26.1542    1.2998
  6.230  -25.9617    1.1484  -26.0936    1.2128  -25.9389    1.1520  -25.9478    1.1396  -25.8922    1.2039  -25.9397    1.2698
  6.240  -25.7511    1.1219  -25.8798    1.1851  -25.7289    1.1262  -25.7382    1.1131  -25.6830    1.1770  -25.7293    1.2411
  6.250  -25.5446    1.0965  -25.6703    1.1584  -25.5229    1.1014  -25.5327    1.0875  -25.4780    1.1512  -25.5231    1.2134
  6.260  -25.3420    1.0721  -25.4649    1.1328  -25.3210    1.0776  -25.3311    1.0630  -25.2768    1.1263  -25.3209    1.1868
  6.270  -25.1434    1.0486  -25.2634    1.1082  -25.1228    1.0546  -25.1334    1.0394  -25.0794    1.1024  -25.1225    1.1612
  6.280  -24.9484    1.0259  -25.0658    1.0844  -24.9284    1.0325  -24.9392    1.0166  -24.8857    1.0793  -24.9277    1.1365
  6.290  -24.7570    1.0041  -24.8718    1.0616  -24.7375    1.0113  -24.7487    0.9947  -24.6955    1.0571  -24.7366    1.1128
  6.300  -24.5690    0.9831  -24.6813    1.0395  -24.5500    0.9907  -24.5615    0.9736  -24.5087    1.0356  -24.5488    1.0899
  6.310  -24.3844    0.9629  -24.4943    1.0183  -24.3658    0.9709  -24.3776    0.9533  -24.3252    1.0150  -24.3644    1.0678
  6.320  -24.2030    0.9433  -24.3106    0.9978  -24.1849    0.9518  -24.1969    0.9337  -24.1450    0.9950  -24.1833    1.0464
  6.330  -24.0248    0.9244  -24.1301    0.9780  -24.0071    0.9333  -24.0193    0.9147  -23.9677    0.9757  -24.0052    1.0258
  6.340  -23.8495    0.9062  -23.9527    0.9589  -23.8322    0.9155  -23.8447    0.8964  -23.7935    0.9571  -23.8302    1.0060
  6.350  -23.6772    0.8886  -23.7783    0.9405  -23.6603    0.8982  -23.6730    0.8787  -23.6222    0.9390  -23.6580    0.9867
  6.360  -23.5077    0.8716  -23.6069    0.9226  -23.4912    0.8815  -23.5041    0.8616  -23.4537    0.9216  -23.4888    0.9681
  6.370  -23.3410    0.8551  -23.4382    0.9054  -23.3249    0.8654  -23.3380    0.8451  -23.2879    0.9047  -23.3222    0.9502
  6.380  -23.1769    0.8391  -23.2723    0.8887  -23.1612    0.8497  -23.1744    0.8291  -23.1247    0.8884  -23.1583    0.9327
  6.390  -23.0155    0.8237  -23.1090    0.8725  -23.0001    0.8346  -23.0135    0.8136  -22.9641    0.8726  -22.9970    0.9159
  6.400  -22.8565    0.8088  -22.9483    0.8569  -22.8415    0.8199  -22.8550    0.7986  -22.8060    0.8573  -22.8383    0.8996
  6.410  -22.7000    0.7943  -22.7901    0.8417  -22.6853    0.8057  -22.6990    0.7841  -22.6503    0.8424  -22.6819    0.8837
  6.420  -22.5459    0.7803  -22.6343    0.8270  -22.5315    0.7919  -22.5453    0.7700  -22.4970    0.8280  -22.5279    0.8684
  6.430  -22.3940    0.7667  -22.4809    0.8127  -22.3800    0.7785  -22.3938    0.7564  -22.3459    0.8140  -22.3762    0.8535
  6.440  -22.2444    0.7535  -22.3298    0.7989  -22.2307    0.7656  -22.2446    0.7431  -22.1971    0.8005  -22.2268    0.8391
  6.450  -22.0970    0.7406  -22.1809    0.7855  -22.0836    0.7529  -22.0976    0.7303  -22.0504    0.7873  -22.0795    0.8251
  6.460  -21.9517    0.7282  -22.0341    0.7725  -21.9385    0.7407  -21.9527    0.7178  -21.9058    0.7745  -21.9344    0.8114
  6.470  -21.8085    0.7161  -21.8895    0.7598  -21.7956    0.7288  -21.8098    0.7057  -21.7632    0.7621  -21.7913    0.7982
  6.480  -21.6673    0.7044  -21.7469    0.7475  -21.6546    0.7172  -21.6689    0.6939  -21.6227    0.7500  -21.6502    0.7854
  6.490  -21.5280    0.6930  -21.6064    0.7356  -21.5156    0.7060  -21.5300    0.6825  -21.4841    0.7382  -21.5111    0.7729
  6.500  -21.3906    0.6819  -21.4677    0.7239  -21.3785    0.6951  -21.3929    0.6714  -21.3474    0.7268  -21.3739    0.7607
  6.510  -21.2551    0.6711  -21.3310    0.7126  -21.2433    0.6844  -21.2577    0.6606  -21.2125    0.7157  -21.2385    0.7489
  6.520  -21.1215    0.6607  -21.1961    0.7016  -21.1098    0.6741  -21.1243    0.6501  -21.0794    0.7049  -21.1049    0.7374
  6.530  -20.9895    0.6504  -21.0630    0.6909  -20.9782    0.6640  -20.9927    0.6399  -20.9481    0.6944  -20.9732    0.7262
  6.540  -20.8593    0.6405  -20.9317    0.6805  -20.8482    0.6542  -20.8627    0.6299  -20.8184    0.6841  -20.8431    0.7154
  6.550  -20.7308    0.6308  -20.8021    0.6704  -20.7199    0.6446  -20.7345    0.6202  -20.6905    0.6741  -20.7147    0.7047
  6.560  -20.6040    0.6214  -20.6742    0.6605  -20.5932    0.6353  -20.6078    0.6108  -20.5642    0.6644  -20.5880    0.6944
  6.570  -20.4787    0.6122  -20.5479    0.6509  -20.4682    0.6262  -20.4828    0.6016  -20.4394    0.6549  -20.4628    0.6843
  6.580  -20.3550    0.6033  -20.4232    0.6415  -20.3447    0.6173  -20.3593    0.5927  -20.3163    0.6456  -20.3392    0.6745
  6.590  -20.2329    0.5946  -20.3000    0.6323  -20.2227    0.6087  -20.2374    0.5839  -20.1946    0.6366  -20.2172    0.6649
  6.600  -20.1122    0.5861  -20.1784    0.6234  -20.1023    0.6002  -20.1169    0.5754  -20.0744    0.6278  -20.0966    0.6556
  6.610  -19.9930    0.5778  -20.0583    0.6147  -19.9832    0.5920  -19.9979    0.5671  -19.9557    0.6192  -19.9775    0.6465
  6.620  -19.8752    0.5697  -19.9396    0.6062  -19.8657    0.5840  -19.8803    0.5590  -19.8384    0.6108  -19.8599    0.6376
  6.630  -19.7588    0.5618  -19.8223    0.5979  -19.7495    0.5762  -19.7641    0.5511  -19.7225    0.6026  -19.7436    0.6289
  6.640  -19.6438    0.5541  -19.7065    0.5898  -19.6346    0.5685  -19.6492    0.5434  -19.6080    0.5946  -19.6287    0.6204
  6.650  -19.5302    0.5466  -19.5920    0.5819  -19.5211    0.5610  -19.5357    0.5359  -19.4947    0.5868  -19.5152    0.6122
  6.660  -19.4178    0.5392  -19.4788    0.5742  -19.4089    0.5537  -19.4235    0.5285  -19.3828    0.5792  -19.4029    0.6041
  6.670  -19.3067    0.5320  -19.3669    0.5667  -19.2980    0.5466  -19.3126    0.5214  -19.2722    0.5717  -19.2919    0.5962
  6.680  -19.1969    0.5250  -19.2563    0.5593  -19.1884    0.5396  -19.2029    0.5143  -19.1628    0.5644  -19.1822    0.5885
  6.690  -19.0883    0.5182  -19.1470    0.5521  -19.0799    0.5328  -19.0945    0.5075  -19.0546    0.5573  -19.0737    0.5809
  6.700  -18.9809    0.5115  -19.0389    0.5450  -18.9727    0.5261  -18.9872    0.5008  -18.9476    0.5503  -18.9665    0.5735
  6.710  -18.8747    0.5049  -18.9320    0.5382  -18.8666    0.5195  -18.8811    0.4942  -18.8418    0.5435  -18.8604    0.5663
  6.720  -18.7697    0.4985  -18.8262    0.5314  -18.7617    0.5132  -18.7762    0.4878  -18.7371    0.5368  -18.7554    0.5593
  6.730  -18.6658    0.4922  -18.7216    0.5248  -18.6580    0.5069  -18.6724    0.4816  -18.6336    0.5303  -18.6516    0.5524
  6.740  -18.5630    0.4861  -18.6182    0.5184  -18.5553    0.5008  -18.5697    0.4754  -18.5312    0.5239  -18.5489    0.5456
  6.750  -18.4613    0.4801  -18.5158    0.5121  -18.4537    0.4948  -18.4681    0.4694  -18.4298    0.5176  -18.4473    0.5390
  6.760  -18.3606    0.4742  -18.4145    0.5059  -18.3532    0.4889  -18.3676    0.4636  -18.3295    0.5115  -18.3468    0.5325
  6.770  -18.2610    0.4685  -18.3143    0.4998  -18.2538    0.4832  -18.2681    0.4578  -18.2303    0.5055  -18.2473    0.5262
  6.780  -18.1625    0.4628  -18.2152    0.4939  -18.1553    0.4775  -18.1696    0.4522  -18.1321    0.4996  -18.1488    0.5200
  6.790  -18.0649    0.4573  -18.1171    0.4881  -18.0579    0.4720  -18.0722    0.4467  -18.0349    0.4939  -18.0514    0.5139
  6.800  -17.9684    0.4519  -18.0199    0.4824  -17.9615    0.4666  -17.9757    0.4413  -17.9387    0.4882  -17.9549    0.5079
  6.810  -17.8728    0.4466  -17.9238    0.4768  -17.8660    0.4613  -17.8802    0.4360  -17.8434    0.4827  -17.8594    0.5021
  6.820  -17.7782    0.4415  -17.8286    0.4714  -17.7715    0.4561  -17.7856    0.4308  -17.7491    0.4773  -17.7649    0.4963
  6.830  -17.6845    0.4364  -17.7344    0.4660  -17.6779    0.4510  -17.6920    0.4258  -17.6557    0.4719  -17.6713    0.4907
  6.840  -17.5917    0.4314  -17.6411    0.4608  -17.5853    0.4460  -17.5993    0.4208  -17.5633    0.4667  -17.5786    0.4852
  6.850  -17.4999    0.4265  -17.5488    0.4556  -17.4935    0.4411  -17.5076    0.4159  -17.4717    0.4616  -17.4869    0.4798
  6.860  -17.4089    0.4217  -17.4573    0.4506  -17.4026    0.4363  -17.4166    0.4111  -17.3810    0.4566  -17.3960    0.4745
  6.870  -17.3188    0.4170  -17.3667    0.4456  -17.3127    0.4316  -17.3266    0.4064  -17.2912    0.4517  -17.3060    0.4694
  6.880  -17.2296    0.4124  -17.2770    0.4408  -17.2235    0.4270  -17.2374    0.4018  -17.2023    0.4468  -17.2168    0.4643
  6.890  -17.1412    0.4079  -17.1882    0.4360  -17.1352    0.4224  -17.1491    0.3973  -17.1142    0.4421  -17.1285    0.4593
  6.900  -17.0536    0.4035  -17.1002    0.4313  -17.0478    0.4180  -17.0616    0.3929  -17.0269    0.4375  -17.0411    0.4544
  6.910  -16.9669    0.3991  -17.0130    0.4267  -16.9611    0.4136  -16.9749    0.3886  -16.9405    0.4329  -16.9544    0.4495
  6.920  -16.8810    0.3948  -16.9266    0.4222  -16.8753    0.4093  -16.8890    0.3843  -16.8548    0.4284  -16.8686    0.4448
  6.930  -16.7958    0.3906  -16.8411    0.4178  -16.7902    0.4051  -16.8039    0.3801  -16.7699    0.4240  -16.7835    0.4402
  6.940  -16.7115    0.3865  -16.7563    0.4134  -16.7059    0.4009  -16.7196    0.3760  -16.6858    0.4197  -16.6992    0.4356
  6.950  -16.6279    0.3825  -16.6723    0.4092  -16.6224    0.3968  -16.6361    0.3720  -16.6025    0.4154  -16.6157    0.4312
  6.960  -16.5450    0.3785  -16.5890    0.4050  -16.5397    0.3928  -16.5533    0.3680  -16.5199    0.4112  -16.5330    0.4268
  6.970  -16.4629    0.3746  -16.5065    0.4008  -16.4576    0.3889  -16.4712    0.3641  -16.4380    0.4071  -16.4509    0.4224
  6.980  -16.3815    0.3708  -16.4248    0.3968  -16.3763    0.3850  -16.3898    0.3603  -16.3569    0.4031  -16.3696    0.4182
  6.990  -16.3009    0.3670  -16.3438    0.3928  -16.2958    0.3812  -16.3092    0.3565  -16.2765    0.3992  -16.2891    0.4140
  7.000  -16.2209    0.3633  -16.2634    0.3889  -16.2159    0.3775  -16.2293    0.3528  -16.1967    0.3953  -16.2092    0.4099
  7.010  -16.1416    0.3597  -16.1838    0.3851  -16.1367    0.3738  -16.1501    0.3492  -16.1177    0.3914  -16.1300    0.4059
  7.020  -16.0631    0.3561  -16.1049    0.3813  -16.0582    0.3702  -16.0715    0.3456  -16.0394    0.3877  -16.0515    0.4019
  7.030  -15.9852    0.3526  -16.0267    0.3776  -15.9804    0.3667  -15.9937    0.3421  -15.9617    0.3840  -15.9737    0.3981
  7.040  -15.9079    0.3492  -15.9491    0.3739  -15.9032    0.3632  -15.9164    0.3387  -15.8847    0.3803  -15.8965    0.3942
  7.050  -15.8313    0.3458  -15.8722    0.3703  -15.8267    0.3597  -15.8399    0.3353  -15.8083    0.3767  -15.8200    0.3905
  7.060  -15.7554    0.3424  -15.7960    0.3668  -15.7508    0.3564  -15.7640    0.3320  -15.7326    0.3732  -15.7442    0.3868
  7.070  -15.6801    0.3391  -15.7204    0.3633  -15.6756    0.3530  -15.6887    0.3287  -15.6575    0.3698  -15.6690    0.3831
  7.080  -15.6054    0.3359  -15.6454    0.3599  -15.6010    0.3498  -15.6140    0.3255  -15.5831    0.3664  -15.5944    0.3795
  7.090  -15.5314    0.3327  -15.5710    0.3565  -15.5270    0.3465  -15.5400    0.3223  -15.5092    0.3630  -15.5204    0.3760
  7.100  -15.4579    0.3296  -15.4973    0.3532  -15.4536    0.3434  -15.4666    0.3192  -15.4360    0.3597  -15.4470    0.3726
  7.110  -15.3851    0.3265  -15.4242    0.3499  -15.3808    0.3402  -15.3937    0.3161  -15.3633    0.3565  -15.3742    0.3691
  7.120  -15.3128    0.3235  -15.3516    0.3467  -15.3086    0.3372  -15.3215    0.3131  -15.2913    0.3533  -15.3021    0.3658
  7.130  -15.2411    0.3205  -15.2797    0.3436  -15.2370    0.3342  -15.2498    0.3101  -15.2198    0.3501  -15.2305    0.3625
  7.140  -15.1700    0.3176  -15.2083    0.3405  -15.1659    0.3312  -15.1787    0.3072  -15.1489    0.3470  -15.1594    0.3592
  7.150  -15.0995    0.3147  -15.1375    0.3374  -15.0954    0.3282  -15.1082    0.3043  -15.0785    0.3440  -15.0890    0.3560
  7.160  -15.0295    0.3119  -15.0673    0.3344  -15.0255    0.3254  -15.0382    0.3015  -15.0088    0.3410  -15.0191    0.3529
  7.170  -14.9601    0.3091  -14.9976    0.3314  -14.9561    0.3225  -14.9688    0.2987  -14.9395    0.3380  -14.9497    0.3498
  7.180  -14.8912    0.3063  -14.9285    0.3285  -14.8873    0.3197  -14.9000    0.2959  -14.8708    0.3351  -14.8809    0.3467
  7.190  -14.8228    0.3036  -14.8599    0.3256  -14.8190    0.3170  -14.8316    0.2932  -14.8027    0.3322  -14.8126    0.3437
  7.200  -14.7550    0.3010  -14.7919    0.3228  -14.7512    0.3142  -14.7638    0.2905  -14.7350    0.3294  -14.7449    0.3407
  7.210  -14.6877    0.2983  -14.7243    0.3200  -14.6840    0.3116  -14.6965    0.2879  -14.6679    0.3266  -14.6776    0.3378
  7.220  -14.6209    0.2958  -14.6573    0.3172  -14.6172    0.3089  -14.6297    0.2853  -14.6013    0.3239  -14.6109    0.3349
  7.230  -14.5546    0.2932  -14.5908    0.3145  -14.5510    0.3063  -14.5635    0.2828  -14.5352    0.3212  -14.5447    0.3321
  7.240  -14.4888    0.2907  -14.5249    0.3119  -14.4853    0.3038  -14.4977    0.2803  -14.4696    0.3185  -14.4790    0.3293
  7.250  -14.4235    0.2882  -14.4594    0.3092  -14.4200    0.3012  -14.4324    0.2778  -14.4045    0.3159  -14.4138    0.3266
  7.260  -14.3587    0.2858  -14.3944    0.3066  -14.3553    0.2987  -14.3676    0.2753  -14.3398    0.3133  -14.3491    0.3239
  7.270  -14.2944    0.2834  -14.3299    0.3041  -14.2910    0.2963  -14.3033    0.2729  -14.2757    0.3107  -14.2848    0.3212
  7.280  -14.2306    0.2810  -14.2658    0.3016  -14.2272    0.2939  -14.2395    0.2706  -14.2120    0.3082  -14.2211    0.3186
  7.290  -14.1672    0.2787  -14.2023    0.2991  -14.1639    0.2915  -14.1761    0.2682  -14.1488    0.3057  -14.1578    0.3160
  7.300  -14.1043    0.2764  -14.1392    0.2966  -14.1010    0.2891  -14.1132    0.2659  -14.0861    0.3033  -14.0949    0.3134
  7.310  -14.0418    0.2741  -14.0766    0.2942  -14.0386    0.2868  -14.0507    0.2636  -14.0238    0.3009  -14.0325    0.3109
  7.320  -13.9798    0.2719  -14.0144    0.2918  -13.9766    0.2845  -13.9887    0.2614  -13.9619    0.2985  -13.9706    0.3084
  7.330  -13.9182    0.2697  -13.9527    0.2895  -13.9151    0.2823  -13.9272    0.2592  -13.9005    0.2962  -13.9091    0.3059
  7.340  -13.8571    0.2675  -13.8914    0.2871  -13.8540    0.2800  -13.8661    0.2570  -13.8396    0.2939  -13.8481    0.3035
  7.350  -13.7964    0.2653  -13.8306    0.2849  -13.7934    0.2778  -13.8054    0.2549  -13.7790    0.2916  -13.7875    0.3011
  7.360  -13.7362    0.2632  -13.7702    0.2826  -13.7332    0.2757  -13.7451    0.2527  -13.7189    0.2894  -13.7273    0.2988
  7.370  -13.6764    0.2612  -13.7102    0.2804  -13.6734    0.2735  -13.6853    0.2506  -13.6593    0.2871  -13.6675    0.2965
  7.380  -13.6169    0.2591  -13.6506    0.2782  -13.6140    0.2714  -13.6259    0.2486  -13.6000    0.2850  -13.6082    0.2942
  7.390  -13.5579    0.2571  -13.5915    0.2760  -13.5550    0.2694  -13.5669    0.2465  -13.5412    0.2828  -13.5493    0.2919
  7.400  -13.4993    0.2551  -13.5328    0.2739  -13.4965    0.2673  -13.5083    0.2445  -13.4827    0.2807  -13.4907    0.2897
  7.410  -13.4412    0.2531  -13.4745    0.2718  -13.4383    0.2653  -13.4501    0.2426  -13.4247    0.2786  -13.4326    0.2875
  7.420  -13.3834    0.2512  -13.4166    0.2697  -13.3806    0.2633  -13.3923    0.2406  -13.3670    0.2765  -13.3749    0.2853
  7.430  -13.3260    0.2492  -13.3590    0.2676  -13.3232    0.2613  -13.3349    0.2387  -13.3098    0.2745  -13.3176    0.2832
  7.440  -13.2690    0.2473  -13.3019    0.2656  -13.2662    0.2594  -13.2779    0.2368  -13.2529    0.2725  -13.2607    0.2811
  7.450  -13.2123    0.2455  -13.2452    0.2636  -13.2096    0.2575  -13.2213    0.2349  -13.1965    0.2705  -13.2041    0.2790
  7.460  -13.1561    0.2436  -13.1888    0.2617  -13.1534    0.2556  -13.1651    0.2330  -13.1404    0.2685  -13.1479    0.2770
  7.470  -13.1002    0.2418  -13.1329    0.2597  -13.0976    0.2537  -13.1092    0.2312  -13.0847    0.2666  -13.0922    0.2750
  7.480  -13.0447    0.2400  -13.0773    0.2578  -13.0421    0.2518  -13.0537    0.2294  -13.0293    0.2647  -13.0367    0.2730
  7.490  -12.9896    0.2383  -13.0221    0.2559  -12.9870    0.2500  -12.9986    0.2276  -12.9743    0.2628  -12.9817    0.2710
  7.500  -12.9348    0.2365  -12.9672    0.2540  -12.9323    0.2482  -12.9438    0.2258  -12.9197    0.2609  -12.9270    0.2690
  7.510  -12.8804    0.2348  -12.9127    0.2522  -12.8779    0.2464  -12.8894    0.2241  -12.8654    0.2591  -12.8727    0.2671
  7.520  -12.8264    0.2331  -12.8586    0.2503  -12.8239    0.2447  -12.8354    0.2224  -12.8115    0.2573  -12.8187    0.2652
  7.530  -12.7727    0.2314  -12.8048    0.2485  -12.7702    0.2430  -12.7817    0.2207  -12.7580    0.2555  -12.7650    0.2634
  7.540  -12.7193    0.2297  -12.7514    0.2468  -12.7169    0.2412  -12.7283    0.2190  -12.7047    0.2537  -12.7118    0.2615
  7.550  -12.6663    0.2281  -12.6983    0.2450  -12.6639    0.2396  -12.6753    0.2173  -12.6519    0.2520  -12.6588    0.2597
  7.560  -12.6136    0.2265  -12.6455    0.2433  -12.6113    0.2379  -12.6226    0.2157  -12.5993    0.2502  -12.6062    0.2579
  7.570  -12.5613    0.2249  -12.5931    0.2415  -12.5590    0.2362  -12.5703    0.2141  -12.5471    0.2486  -12.5540    0.2561
  7.580  -12.5093    0.2233  -12.5411    0.2399  -12.5070    0.2346  -12.5183    0.2125  -12.4952    0.2469  -12.5020    0.2544
  7.590  -12.4576    0.2218  -12.4893    0.2382  -12.4553    0.2330  -12.4666    0.2109  -12.4437    0.2452  -12.4504    0.2526
  7.600  -12.4062    0.2202  -12.4379    0.2365  -12.4040    0.2314  -12.4153    0.2093  -12.3925    0.2436  -12.3991    0.2509
  7.610  -12.3552    0.2187  -12.3868    0.2349  -12.3530    0.2299  -12.3642    0.2078  -12.3415    0.2420  -12.3482    0.2493
  7.620  -12.3045    0.2172  -12.3361    0.2333  -12.3023    0.2283  -12.3135    0.2062  -12.2910    0.2404  -12.2975    0.2476
  7.630  -12.2540    0.2157  -12.2856    0.2317  -12.2519    0.2268  -12.2631    0.2047  -12.2407    0.2388  -12.2472    0.2459
  7.640  -12.2039    0.2143  -12.2355    0.2301  -12.2018    0.2253  -12.2130    0.2032  -12.1907    0.2373  -12.1971    0.2443
  7.650  -12.1541    0.2128  -12.1856    0.2286  -12.1520    0.2238  -12.1632    0.2018  -12.1410    0.2357  -12.1474    0.2427
  7.660  -12.1046    0.2114  -12.1361    0.2270  -12.1025    0.2223  -12.1137    0.2003  -12.0917    0.2342  -12.0980    0.2411
  7.670  -12.0554    0.2100  -12.0869    0.2255  -12.0534    0.2208  -12.0645    0.1989  -12.0426    0.2327  -12.0489    0.2396
  7.680  -12.0065    0.2086  -12.0380    0.2240  -12.0045    0.2194  -12.0156    0.1975  -11.9938    0.2312  -12.0000    0.2380
  7.690  -11.9579    0.2073  -11.9893    0.2225  -11.9559    0.2180  -11.9670    0.1961  -11.9453    0.2298  -11.9515    0.2365
  7.700  -11.9096    0.2059  -11.9410    0.2211  -11.9076    0.2166  -11.9187    0.1947  -11.8971    0.2283  -11.9033    0.2350
  7.710  -11.8616    0.2046  -11.8930    0.2196  -11.8596    0.2152  -11.8707    0.1933  -11.8492    0.2269  -11.8553    0.2335
  7.720  -11.8138    0.2033  -11.8452    0.2182  -11.8118    0.2138  -11.8229    0.1919  -11.8016    0.2255  -11.8076    0.2321
  7.730  -11.7663    0.2020  -11.7977    0.2168  -11.7644    0.2125  -11.7754    0.1906  -11.7543    0.2241  -11.7602    0.2306
  7.740  -11.7191    0.2007  -11.7505    0.2154  -11.7172    0.2111  -11.7282    0.1893  -11.7072    0.2228  -11.7131    0.2292
  7.750  -11.6722    0.1994  -11.7036    0.2140  -11.6703    0.2098  -11.6813    0.1879  -11.6604    0.2214  -11.6663    0.2278
  7.760  -11.6255    0.1981  -11.6570    0.2127  -11.6237    0.2085  -11.6347    0.1866  -11.6139    0.2201  -11.6197    0.2264
  7.770  -11.5792    0.1969  -11.6106    0.2113  -11.5773    0.2072  -11.5883    0.1854  -11.5676    0.2188  -11.5734    0.2250
  7.780  -11.5330    0.1957  -11.5645    0.2100  -11.5312    0.2059  -11.5422    0.1841  -11.5216    0.2175  -11.5273    0.2237
  7.790  -11.4872    0.1945  -11.5186    0.2087  -11.4854    0.2047  -11.4963    0.1828  -11.4759    0.2162  -11.4816    0.2223
  7.800  -11.4416    0.1933  -11.4731    0.2074  -11.4398    0.2034  -11.4507    0.1816  -11.4304    0.2149  -11.4360    0.2210
  7.810  -11.3962    0.1921  -11.4277    0.2061  -11.3944    0.2022  -11.4054    0.1804  -11.3852    0.2137  -11.3908    0.2197
  7.820  -11.3511    0.1909  -11.3827    0.2048  -11.3494    0.2010  -11.3603    0.1791  -11.3402    0.2124  -11.3458    0.2184
  7.830  -11.3063    0.1898  -11.3379    0.2036  -11.3045    0.1998  -11.3155    0.1779  -11.2955    0.2112  -11.3010    0.2171
  7.840  -11.2617    0.1887  -11.2933    0.2023  -11.2600    0.1986  -11.2709    0.1767  -11.2510    0.2100  -11.2565    0.2159
  7.850  -11.2173    0.1875  -11.2490    0.2011  -11.2156    0.1974  -11.2266    0.1756  -11.2068    0.2088  -11.2122    0.2146
  7.860  -11.1732    0.1864  -11.2050    0.1999  -11.1715    0.1963  -11.1825    0.1744  -11.1628    0.2076  -11.1682    0.2134
  7.870  -11.1293    0.1853  -11.1611    0.1987  -11.1277    0.1951  -11.1386    0.1732  -11.1191    0.2065  -11.1244    0.2122
  7.880  -11.0857    0.1843  -11.1176    0.1975  -11.0841    0.1940  -11.0950    0.1721  -11.0756    0.2053  -11.0809    0.2110
  7.890  -11.0423    0.1832  -11.0742    0.1964  -11.0407    0.1929  -11.0516    0.1710  -11.0323    0.2042  -11.0376    0.2099
  7.900  -10.9991    0.1821  -11.0311    0.1952  -10.9975    0.1918  -11.0084    0.1698  -10.9893    0.2031  -10.9945    0.2087
  7.910  -10.9562    0.1811  -10.9883    0.1941  -10.9546    0.1907  -10.9655    0.1687  -10.9464    0.2020  -10.9516    0.2075
  7.920  -10.9135    0.1801  -10.9456    0.1930  -10.9119    0.1896  -10.9228    0.1676  -10.9039    0.2009  -10.9090    0.2064
  7.930  -10.8710    0.1791  -10.9032    0.1918  -10.8694    0.1886  -10.8803    0.1666  -10.8615    0.1999  -10.8666    0.2053
  7.940  -10.8287    0.1781  -10.8610    0.1907  -10.8272    0.1875  -10.8381    0.1655  -10.8194    0.1988  -10.8244    0.2042
  7.950  -10.7867    0.1771  -10.8191    0.1897  -10.7851    0.1865  -10.7961    0.1644  -10.7774    0.1978  -10.7825    0.2031
  7.960  -10.7448    0.1761  -10.7773    0.1886  -10.7433    0.1855  -10.7542    0.1634  -10.7357    0.1967  -10.7407    0.2020
  7.970  -10.7032    0.1752  -10.7358    0.1875  -10.7017    0.1845  -10.7126    0.1623  -10.6942    0.1957  -10.6992    0.2010
  7.980  -10.6618    0.1742  -10.6945    0.1865  -10.6603    0.1835  -10.6712    0.1613  -10.6530    0.1947  -10.6579    0.1999
  7.990  -10.6206    0.1733  -10.6534    0.1854  -10.6191    0.1825  -10.6301    0.1603  -10.6119    0.1937  -10.6168    0.1989
  8.000  -10.5796    0.1724  -10.6126    0.1844  -10.5781    0.1815  -10.5891    0.1593  -10.5710    0.1928  -10.5759    0.1979
  8.010  -10.5388    0.1714  -10.5719    0.1834  -10.5374    0.1805  -10.5483    0.1583  -10.5304    0.1918  -10.5352    0.1969
  8.020  -10.4982    0.1706  -10.5314    0.1824  -10.4968    0.1796  -10.5078    0.1573  -10.4899    0.1909  -10.4947    0.1959
  8.030  -10.4578    0.1697  -10.4912    0.1814  -10.4564    0.1787  -10.4674    0.1563  -10.4497    0.1899  -10.4544    0.1950
  8.040  -10.4176    0.1688  -10.4511    0.1805  -10.4162    0.1777  -10.4272    0.1553  -10.4096    0.1890  -10.4143    0.1940
  8.050  -10.3776    0.1679  -10.4113    0.1795  -10.3763    0.1768  -10.3872    0.1544  -10.3697    0.1881  -10.3744    0.1931
  8.060  -10.3378    0.1671  -10.3716    0.1785  -10.3365    0.1759  -10.3475    0.1534  -10.3301    0.1872  -10.3347    0.1921
  8.070  -10.2982    0.1663  -10.3322    0.1776  -10.2969    0.1750  -10.3079    0.1525  -10.2906    0.1864  -10.2952    0.1912
  8.080  -10.2588    0.1654  -10.2929    0.1767  -10.2574    0.1742  -10.2685    0.1516  -10.2513    0.1855  -10.2559    0.1903
  8.090  -10.2196    0.1646  -10.2538    0.1758  -10.2182    0.1733  -10.2293    0.1506  -10.2122    0.1847  -10.2168    0.1894
  8.100  -10.1805    0.1638  -10.2150    0.1749  -10.1792    0.1724  -10.1902    0.1497  -10.1733    0.1838  -10.1778    0.1886
  8.110  -10.1416    0.1630  -10.1763    0.1740  -10.1403    0.1716  -10.1514    0.1488  -10.1345    0.1830  -10.1390    0.1877
  8.120  -10.1029    0.1623  -10.1378    0.1731  -10.1016    0.1708  -10.1127    0.1479  -10.0960    0.1822  -10.1004    0.1869
  8.130  -10.0644    0.1615  -10.0994    0.1722  -10.0631    0.1700  -10.0742    0.1470  -10.0576    0.1814  -10.0620    0.1860
  8.140  -10.0260    0.1607  -10.0613    0.1714  -10.0247    0.1692  -10.0359    0.1461  -10.0194    0.1806  -10.0238    0.1852
  8.150   -9.9878    0.1600  -10.0233    0.1705   -9.9866    0.1684   -9.9977    0.1453   -9.9814    0.1799   -9.9857    0.1844
  8.160   -9.9498    0.1593   -9.9855    0.1697   -9.9486    0.1676   -9.9598    0.1444   -9.9435    0.1791   -9.9478    0.1836
  8.170   -9.9120    0.1586   -9.9479    0.1689   -9.9107    0.1668   -9.9220    0.1436   -9.9058    0.1784   -9.9101    0.1829
  8.180   -9.8743    0.1579   -9.9105    0.1680   -9.8731    0.1661   -9.8843    0.1427   -9.8683    0.1777   -9.8726    0.1821
  8.190   -9.8368    0.1572   -9.8732    0.1672   -9.8355    0.1653   -9.8468    0.1419   -9.8309    0.1769   -9.8352    0.1814
  8.200   -9.7994    0.1565   -9.8361    0.1665   -9.7982    0.1646   -9.8095    0.1410   -9.7937    0.1762   -9.7979    0.1806
  8.210   -9.7622    0.1558   -9.7991    0.1657   -9.7610    0.1639   -9.7724    0.1402   -9.7567    0.1756   -9.7609    0.1799
  8.220   -9.7252    0.1552   -9.7624    0.1649   -9.7240    0.1631   -9.7353    0.1394   -9.7198    0.1749   -9.7239    0.1792
  8.230   -9.6883    0.1545   -9.7257    0.1642   -9.6871    0.1624   -9.6985    0.1386   -9.6830    0.1742   -9.6872    0.1785
  8.240   -9.6515    0.1539   -9.6893    0.1634   -9.6503    0.1618   -9.6618    0.1378   -9.6464    0.1736   -9.6506    0.1779
  8.250   -9.6149    0.1533   -9.6530    0.1627   -9.6137    0.1611   -9.6252    0.1370   -9.6100    0.1730   -9.6141    0.1772
  8.260   -9.5785    0.1527   -9.6168    0.1619   -9.5773    0.1604   -9.5888    0.1362   -9.5737    0.1724   -9.5778    0.1765
  8.270   -9.5422    0.1521   -9.5809    0.1612   -9.5410    0.1598   -9.5526    0.1354   -9.5376    0.1718   -9.5416    0.1759
  8.280   -9.5060    0.1515   -9.5450    0.1605   -9.5048    0.1591   -9.5165    0.1347   -9.5016    0.1712   -9.5056    0.1753
  8.290   -9.4700    0.1509   -9.5093    0.1598   -9.4688    0.1585   -9.4805    0.1339   -9.4657    0.1706   -9.4697    0.1747
  8.300   -9.4341    0.1504   -9.4738    0.1592   -9.4329    0.1579   -9.4447    0.1332   -9.4300    0.1701   -9.4340    0.1741
  8.310   -9.3983    0.1498   -9.4384    0.1585   -9.3972    0.1573   -9.4090    0.1324   -9.3945    0.1695   -9.3984    0.1736
  8.320   -9.3627    0.1493   -9.4031    0.1578   -9.3616    0.1567   -9.3734    0.1317   -9.3590    0.1690   -9.3629    0.1730
  8.330   -9.3272    0.1488   -9.3680    0.1572   -9.3261    0.1561   -9.3380    0.1309   -9.3237    0.1685   -9.3276    0.1725
  8.340   -9.2918    0.1483   -9.3330    0.1566   -9.2907    0.1556   -9.3026    0.1302   -9.2885    0.1680   -9.2924    0.1719
  8.350   -9.2566    0.1478   -9.2982    0.1559   -9.2555    0.1550   -9.2675    0.1295   -9.2535    0.1675   -9.2573    0.1714
  8.360   -9.2215    0.1473   -9.2635    0.1553   -9.2203    0.1545   -9.2324    0.1288   -9.2185    0.1671   -9.2223    0.1710
  8.370   -9.1865    0.1468   -9.2289    0.1547   -9.1853    0.1539   -9.1975    0.1281   -9.1837    0.1666   -9.1875    0.1705
  8.380   -9.1516    0.1464   -9.1945    0.1541   -9.1504    0.1534   -9.1626    0.1274   -9.1490    0.1662   -9.1528    0.1700
  8.390   -9.1168    0.1459   -9.1602    0.1536   -9.1157    0.1529   -9.1279    0.1267   -9.1144    0.1658   -9.1182    0.1696
  8.400   -9.0821    0.1455   -9.1260    0.1530   -9.0810    0.1524   -9.0933    0.1260   -9.0800    0.1654   -9.0837    0.1692
  8.410   -9.0476    0.1451   -9.0919    0.1524   -9.0464    0.1520   -9.0588    0.1253   -9.0456    0.1650   -9.0494    0.1688
  8.420   -9.0131    0.1447   -9.0580    0.1519   -9.0120    0.1515   -9.0245    0.1246   -9.0114    0.1647   -9.0151    0.1684
  8.430   -8.9787    0.1443   -9.0241    0.1514   -8.9776    0.1511   -8.9902    0.1240   -8.9773    0.1643   -8.9809    0.1680
  8.440   -8.9445    0.1440   -8.9904    0.1509   -8.9434    0.1506   -8.9560    0.1233   -8.9432    0.1640   -8.9469    0.1677
  8.450   -8.9103    0.1436   -8.9568    0.1504   -8.9092    0.1502   -8.9219    0.1226   -8.9093    0.1637   -8.9129    0.1674
  8.460   -8.8763    0.1433   -8.9233    0.1499   -8.8751    0.1498   -8.8880    0.1220   -8.8755    0.1634   -8.8791    0.1670
  8.470   -8.8423    0.1430   -8.8900    0.1494   -8.8412    0.1494   -8.8541    0.1214   -8.8417    0.1632   -8.8453    0.1668
  8.480   -8.8084    0.1427   -8.8567    0.1489   -8.8073    0.1491   -8.8203    0.1207   -8.8081    0.1629   -8.8117    0.1665
  8.490   -8.7746    0.1424   -8.8235    0.1485   -8.7735    0.1487   -8.7866    0.1201   -8.7745    0.1627   -8.7781    0.1662
  8.500   -8.7409    0.1422   -8.7904    0.1480   -8.7397    0.1484   -8.7529    0.1195   -8.7411    0.1625   -8.7446    0.1660
  8.510   -8.7072    0.1419   -8.7575    0.1476   -8.7061    0.1481   -8.7194    0.1189   -8.7077    0.1623   -8.7112    0.1658
  8.520   -8.6736    0.1417   -8.7246    0.1472   -8.6725    0.1478   -8.6859    0.1182   -8.6744    0.1622   -8.6779    0.1657
  8.530   -8.6401    0.1415   -8.6918    0.1468   -8.6390    0.1475   -8.6525    0.1176   -8.6411    0.1621   -8.6446    0.1655
  8.540   -8.6067    0.1413   -8.6592    0.1464   -8.6056    0.1472   -8.6192    0.1170   -8.6080    0.1619   -8.6114    0.1654
  8.550   -8.5733    0.1412   -8.6266    0.1460   -8.5722    0.1470   -8.5859    0.1164   -8.5749    0.1619   -8.5783    0.1653
  8.560   -8.5400    0.1410   -8.5940    0.1457   -8.5388    0.1468   -8.5527    0.1159   -8.5419    0.1618   -8.5453    0.1652
  8.570   -8.5067    0.1409   -8.5616    0.1453   -8.5056    0.1465   -8.5196    0.1153   -8.5089    0.1618   -8.5123    0.1651
  8.580   -8.4735    0.1408   -8.5293    0.1450   -8.4723    0.1464   -8.4865    0.1147   -8.4760    0.1618   -8.4794    0.1651
  8.590   -8.4404    0.1408   -8.4970    0.1447   -8.4392    0.1462   -8.4534    0.1141   -8.4432    0.1618   -8.4466    0.1651
  8.600   -8.4072    0.1407   -8.4648    0.1444   -8.4060    0.1460   -8.4205    0.1136   -8.4104    0.1619   -8.4137    0.1652
  8.610   -8.3741    0.1407   -8.4327    0.1442   -8.3729    0.1459   -8.3875    0.1130   -8.3777    0.1620   -8.3810    0.1652
  8.620   -8.3411    0.1407   -8.4006    0.1439   -8.3399    0.1458   -8.3546    0.1125   -8.3450    0.1621   -8.3483    0.1653
  8.630   -8.3081    0.1407   -8.3686    0.1437   -8.3068    0.1458   -8.3217    0.1119   -8.3123    0.1622   -8.3156    0.1655
  8.640   -8.2751    0.1408   -8.3367    0.1434   -8.2738    0.1457   -8.2888    0.1114   -8.2797    0.1624   -8.2829    0.1656
  8.650   -8.2421    0.1409   -8.3048    0.1432   -8.2408    0.1457   -8.2560    0.1109   -8.2471    0.1627   -8.2503    0.1658
  8.660   -8.2091    0.1410   -8.2730    0.1430   -8.2078    0.1457   -8.2232    0.1104   -8.2145    0.1629   -8.2177    0.1661
  8.670   -8.1761    0.1412   -8.2412    0.1429   -8.1748    0.1457   -8.1904    0.1098   -8.1819    0.1632   -8.1852    0.1664
  8.680   -8.1432    0.1414   -8.2095    0.1427   -8.1418    0.1458   -8.1576    0.1093   -8.1494    0.1636   -8.1526    0.1667
  8.690   -8.1102    0.1416   -8.1778    0.1426   -8.1088    0.1459   -8.1248    0.1088   -8.1169    0.1640   -8.1201    0.1671
  8.700   -8.0772    0.1419   -8.1462    0.1425   -8.0758    0.1460   -8.0920    0.1083   -8.0843    0.1644   -8.0875    0.1675
  8.710   -8.0442    0.1422   -8.1146    0.1424   -8.0428    0.1462   -8.0592    0.1078   -8.0518    0.1649   -8.0550    0.1679
  8.720   -8.0112    0.1425   -8.0830    0.1424   -8.0097    0.1464   -8.0263    0.1074   -8.0193    0.1654   -8.0224    0.1684
  8.730   -7.9781    0.1429   -8.0514    0.1424   -7.9766    0.1466   -7.9935    0.1069   -7.9867    0.1660   -7.9899    0.1690
  8.740   -7.9450    0.1433   -8.0199    0.1424   -7.9435    0.1469   -7.9606    0.1064   -7.9541    0.1666   -7.9573    0.1696
  8.750   -7.9119    0.1438   -7.9884    0.1424   -7.9103    0.1472   -7.9276    0.1060   -7.9215    0.1673   -7.9246    0.1703
  8.760   -7.8787    0.1443   -7.9569    0.1424   -7.8771    0.1475   -7.8946    0.1055   -7.8889    0.1680   -7.8920    0.1710
  8.770   -7.8454    0.1449   -7.9254    0.1425   -7.8437    0.1479   -7.8616    0.1051   -7.8562    0.1688   -7.8593    0.1718
  8.780   -7.8121    0.1455   -7.8939    0.1426   -7.8103    0.1483   -7.8285    0.1046   -7.8235    0.1697   -7.8266    0.1726
  8.790   -7.7786    0.1462   -7.8624    0.1427   -7.7769    0.1488   -7.7953    0.1042   -7.7907    0.1706   -7.7937    0.1735
  8.800   -7.7451    0.1470   -7.8309    0.1429   -7.7433    0.1494   -7.7620    0.1038   -7.7578    0.1716   -7.7609    0.1745
  8.810   -7.7115    0.1478   -7.7993    0.1431   -7.7096    0.1500   -7.7286    0.1034   -7.7249    0.1727   -7.7279    0.1756
  8.820   -7.6778    0.1487   -7.7678    0.1433   -7.6758    0.1506   -7.6951    0.1030   -7.6919    0.1739   -7.6949    0.1768
  8.830   -7.6439    0.1496   -7.7362    0.1436   -7.6418    0.1513   -7.6615    0.1026   -7.6588    0.1752   -7.6617    0.1780
  8.840   -7.6099    0.1507   -7.7046    0.1439   -7.6077    0.1521   -7.6277    0.1022   -7.6255    0.1765   -7.6285    0.1793
  8.850   -7.5757    0.1518   -7.6729    0.1443   -7.5734    0.1530   -7.5938    0.1019   -7.5922    0.1780   -7.5951    0.1808
  8.860   -7.5414    0.1530   -7.6412    0.1447   -7.5390    0.1539   -7.5598    0.1015   -7.5587    0.1795   -7.5616    0.1823
  8.870   -7.5068    0.1543   -7.6094    0.1451   -7.5044    0.1549   -7.5255    0.1012   -7.5251    0.1812   -7.5280    0.1839
  8.880   -7.4721    0.1557   -7.5776    0.1456   -7.4695    0.1560   -7.4911    0.1009   -7.4913    0.1830   -7.4942    0.1857
  8.890   -7.4372    0.1572   -7.5457    0.1461   -7.4344    0.1571   -7.4564    0.1006   -7.4573    0.1849   -7.4602    0.1876
  8.900   -7.4020    0.1588   -7.5137    0.1467   -7.3991    0.1584   -7.4216    0.1003   -7.4232    0.1869   -7.4261    0.1896
  8.910   -7.3666    0.1606   -7.4816    0.1474   -7.3635    0.1598   -7.3864    0.1000   -7.3888    0.1891   -7.3917    0.1918
  8.920   -7.3308    0.1625   -7.4493    0.1481   -7.3276    0.1612   -7.3510    0.0997   -7.3543    0.1914   -7.3571    0.1941
  8.930   -7.2948    0.1645   -7.4170    0.1488   -7.2914    0.1628   -7.3153    0.0995   -7.3194    0.1939   -7.3223    0.1966
  8.940   -7.2585    0.1667   -7.3846    0.1496   -7.2549    0.1645   -7.2793    0.0992   -7.2844    0.1966   -7.2872    0.1992
  8.950   -7.2218    0.1690   -7.3520    0.1505   -7.2180    0.1664   -7.2429    0.0990   -7.2490    0.1995   -7.2519    0.2021
  8.960   -7.1847    0.1716   -7.3192    0.1515   -7.1807    0.1684   -7.2062    0.0988   -7.2134    0.2025   -7.2162    0.2052
  8.970   -7.1473    0.1743   -7.2863    0.1525   -7.1429    0.1706   -7.1690    0.0987   -7.1774    0.2058   -7.1802    0.2084
  8.980   -7.1093    0.1772   -7.2532    0.1537   -7.1047    0.1729   -7.1314    0.0986   -7.1411    0.2094   -7.1439    0.2120
  8.990   -7.0710    0.1804   -7.2200    0.1549   -7.0660    0.1754   -7.0934    0.0984   -7.1043    0.2132   -7.1071    0.2158
  9.000   -7.0321    0.1838   -7.1865    0.1562   -7.0267    0.1781   -7.0548    0.0984   -7.0672    0.2173   -7.0700    0.2198
  9.010   -6.9926    0.1875   -7.1527    0.1576   -6.9868    0.1810   -7.0156    0.0983   -7.0296    0.2217   -7.0324    0.2242
  9.020   -6.9525    0.1915   -7.1188    0.1591   -6.9463    0.1842   -6.9758    0.0983   -6.9916    0.2264   -6.9944    0.2289
  9.030   -6.9118    0.1958   -7.0845    0.1607   -6.9051    0.1876   -6.9354    0.0984   -6.9530    0.2315   -6.9558    0.2340
  9.040   -6.8704    0.2005   -7.0500    0.1625   -6.8631    0.1913   -6.8942    0.0985   -6.9139    0.2370   -6.9167    0.2395
  9.050   -6.8283    0.2056   -7.0151    0.1644   -6.8203    0.1953   -6.8523    0.0986   -6.8742    0.2429   -6.8770    0.2454
  9.060   -6.7853    0.2111   -6.9799    0.1664   -6.7766    0.1997   -6.8095    0.0988   -6.8339    0.2493   -6.8366    0.2518
  9.070   -6.7414    0.2172   -6.9444    0.1686   -6.7320    0.2045   -6.7657    0.0991   -6.7928    0.2562   -6.7955    0.2587
  9.080   -6.6966    0.2237   -6.9085    0.1709   -6.6862    0.2096   -6.7210    0.0994   -6.7510    0.2638   -6.7537    0.2662
  9.090   -6.6508    0.2308   -6.8721    0.1734   -6.6393    0.2153   -6.6751    0.0999   -6.7084    0.2719   -6.7111    0.2744
  9.100   -6.6038    0.2387   -6.8353    0.1761   -6.5912    0.2214   -6.6280    0.1004   -6.6649    0.2808   -6.6676    0.2832
  9.110   -6.5556    0.2472   -6.7980    0.1791   -6.5416    0.2282   -6.5795    0.1010   -6.6204    0.2905   -6.6231    0.2929
  9.120   -6.5060    0.2566   -6.7602    0.1822   -6.4906    0.2356   -6.5296    0.1018   -6.5750    0.3011   -6.5777    0.3035
  9.130   -6.4551    0.2669   -6.7218    0.1856   -6.4378    0.2437   -6.4780    0.1027   -6.5284    0.3127   -6.5311    0.3150
  9.140   -6.4025    0.2783   -6.6828    0.1893   -6.3832    0.2526   -6.4246    0.1038   -6.4806    0.3254   -6.4833    0.3277
  9.150   -6.3482    0.2909   -6.6432    0.1932   -6.3266    0.2625   -6.3692    0.1050   -6.4315    0.3393   -6.4342    0.3417
  9.160   -6.2920    0.3049   -6.6029    0.1975   -6.2677    0.2734   -6.3116    0.1065   -6.3811    0.3547   -6.3837    0.3570
  9.170   -6.2338    0.3204   -6.5618    0.2021   -6.2063    0.2856   -6.2514    0.1083   -6.3291    0.3716   -6.3317    0.3740
  9.180   -6.1733    0.3376   -6.5199    0.2070   -6.1421    0.2991   -6.1885    0.1104   -6.2754    0.3905   -6.2781    0.3928
  9.190   -6.1104    0.3569   -6.4771    0.2124   -6.0748    0.3143   -6.1225    0.1129   -6.2200    0.4114   -6.2226    0.4137
  9.200   -6.0447    0.3786   -6.4334    0.2183   -6.0039    0.3313   -6.0529    0.1158   -6.1626    0.4347   -6.1653    0.4370
  9.210   -5.9761    0.4030   -6.3886    0.2246   -5.9292    0.3505   -5.9794    0.1193   -6.1032    0.4607   -6.1059    0.4630
  9.220   -5.9043    0.4305   -6.3428    0.2313   -5.8500    0.3723   -5.9012    0.1234   -6.0416    0.4900   -6.0442    0.4923
  9.230   -5.8290    0.4618   -6.2958    0.2387   -5.7657    0.3971   -5.8178    0.1283   -5.9776    0.5230   -5.9802    0.5252
  9.240   -5.7497    0.4973   -6.2474    0.2466   -5.6756    0.4255   -5.7283    0.1342   -5.9110    0.5602   -5.9136    0.5625
  9.250   -5.6663    0.5381   -6.1976    0.2553   -5.5790    0.4582   -5.6318    0.1414   -5.8418    0.6026   -5.8444    0.6049
  9.260   -5.5782    0.5849   -6.1462    0.2647   -5.4747    0.4962   -5.5271    0.1503   -5.7699    0.6510   -5.7724    0.6533
  9.270   -5.4852    0.6389   -6.0931    0.2749   -5.3616    0.5407   -5.4127    0.1613   -5.6951    0.7064   -5.6976    0.7087
  9.280   -5.3870    0.7016   -6.0383    0.2859   -5.2383    0.5932   -5.2869    0.1751   -5.6175    0.7703   -5.6200    0.7726
  9.290   -5.2832    0.7748   -5.9815    0.2978   -5.1029    0.6557   -5.1474    0.1926   -5.5374    0.8443   -5.5399    0.8466
  9.300   -5.1736    0.8605   -5.9225    0.3107   -4.9533    0.7311   -4.9912    0.2150   -5.4552    0.9303   -5.4577    0.9326
  9.310   -5.0584    0.9613   -5.8612    0.3245   -4.7868    0.8230   -4.8148    0.2443   -5.3717    1.0308   -5.3742    1.0331
  9.320   -4.9378    1.0805   -5.7973    0.3391   -4.6003    0.9367   -4.6131    0.2832   -5.2883    1.1487   -5.2906    1.1511
  9.330   -4.8125    1.2219   -5.7305    0.3543   -4.3898    1.0797   -4.3799    0.3358   -5.2070    1.2876   -5.2094    1.2900
  9.340   -4.6840    1.3901   -5.6605    0.3698   -4.1506    1.2628   -4.1066    0.4088   -5.1315    1.4515   -5.1337    1.4540
  9.350   -4.5542    1.5905   -5.5867    0.3848   -3.8776    1.5027   -3.7816    0.5128   -5.0667    1.6452   -5.0688    1.6478
  9.360   -4.4261    1.8298   -5.5082    0.3980   -3.5662    1.8246   -3.3897    0.6657   -5.0204    1.8737   -5.0225    1.8765
  9.370   -4.3032    2.1166   -5.4231    0.4072   -3.2147    2.2695   -2.9109    0.8987   -5.0042    2.1421   -5.0061    2.1452
  9.380   -4.1899    2.4633   -5.3278    0.4087   -2.8337    2.9035   -2.3222    1.2685   -5.0351    2.4550   -5.0369    2.4585
  9.390   -4.0926    2.8927   -5.2142    0.3970   -2.4690    3.8350   -1.6088    1.8811   -5.1396    2.8148   -5.1414    2.8191
  9.400   -4.0315    3.4504   -5.0634    0.3657   -2.2692    5.2267   -0.8092    2.9333   -5.3622    3.2159   -5.3642    3.2213
  9.410   -4.0875    4.2156   -4.8347    0.3193   -2.6464    7.2317   -0.1703    4.7392   -5.7786    3.6194   -5.7816    3.6263
  9.420   -4.5129    5.2224   -4.4647    0.3166   -4.4574    9.5566   -0.4942    7.4793   -6.4738    3.8733   -6.4794    3.8814
  9.430   -5.6678    6.1005   -3.9699    0.5229   -8.1847   10.5356   -2.9450   10.0974   -7.3229    3.6671   -7.3323    3.6743
  9.440   -7.2235    6.1101   -3.5873    1.0080  -11.7188    8.5954   -6.6433   10.3806   -7.8190    2.9896   -7.8308    2.9933
  9.450   -8.3126    5.3848   -3.4457    1.5539  -12.8971    5.5184   -9.0806    8.6806   -7.8051    2.3498   -7.8164    2.3499
  9.460   -8.8188    4.5635   -3.4208    2.0345  -12.4948    3.2101   -9.9592    6.8348   -7.5859    1.9740   -7.5956    1.9720
  9.470   -9.0075    3.8898   -3.4240    2.4881  -11.6380    1.8262  -10.0833    5.4935   -7.3464    1.7922   -7.3545    1.7890
  9.480   -9.0556    3.3696   -3.4501    2.9708  -10.7750    1.0418   -9.9635    4.6113   -7.1299    1.7309   -7.1368    1.7271
  9.490   -9.0454    2.9661   -3.5335    3.5162  -10.0148    0.6122   -9.8104    4.0371   -6.9460    1.7589   -6.9518    1.7547
  9.500   -9.0158    2.6457   -3.7294    4.1315   -9.3676    0.4043   -9.7043    3.6520   -6.8080    1.8644   -6.8128    1.8600
  9.510   -8.9864    2.3803   -4.1053    4.7878   -8.8275    0.3496   -9.6744    3.3637   -6.7402    2.0356   -6.7439    2.0309
  9.520   -8.9648    2.1451   -4.7198    5.4054   -8.3969    0.4083   -9.7172    3.0990   -6.7722    2.2453   -6.7748    2.2406
  9.530   -8.9470    1.9194   -5.5808    5.8538   -8.0865    0.5433   -9.8030    2.8017   -6.9231    2.4435   -6.9246    2.4389
  9.540   -8.9198    1.6919   -6.6006    5.9972   -7.9020    0.7077   -9.8788    2.4452   -7.1786    2.5665   -7.1792    2.5624
  9.550   -8.8683    1.4650   -7.6072    5.7780   -7.8280    0.8509   -9.8911    2.0442   -7.4841    2.5681   -7.4838    2.5647
  9.560   -8.7860    1.2513   -8.4294    5.2618   -7.8258    0.9385   -9.8145    1.6434   -7.7687    2.4473   -7.7678    2.4447
  9.570   -8.6781    1.0635   -8.9838    4.5909   -7.8518    0.9641   -9.6603    1.2868   -7.9829    2.2426   -7.9817    2.2407
  9.580   -8.5555    0.9072   -9.2828    3.8995   -7.8753    0.9414   -9.4589    0.9964   -8.1128    2.0025   -8.1115    2.0014
  9.590   -8.4286    0.7813   -9.3882    3.2694   -7.8824    0.8897   -9.2401    0.7732   -8.1695    1.7637   -8.1683    1.7632
  9.600   -8.3045    0.6810   -9.3672    2.7323   -7.8708    0.8250   -9.0240    0.6069   -8.1723    1.5458   -8.1713    1.5458
  9.610   -8.1868    0.6009   -9.2723    2.2904   -7.8432    0.7573   -8.8210    0.4843   -8.1397    1.3557   -8.1388    1.3562
  9.620   -8.0769    0.5365   -9.1390    1.9325   -7.8040    0.6923   -8.6352    0.3941   -8.0855    1.1938   -8.0848    1.1945
  9.630   -7.9748    0.4839   -8.9890    1.6440   -7.7569    0.6325   -8.4672    0.3272   -8.0191    1.0571   -8.0187    1.0580
  9.640   -7.8803    0.4404   -8.8351    1.4112   -7.7050    0.5787   -8.3158    0.2771   -7.9468    0.9419   -7.9465    0.9430
  9.650   -7.7926    0.4039   -8.6841    1.2223   -7.6505    0.5308   -8.1793    0.2390   -7.8723    0.8447   -7.8722    0.8459
  9.660   -7.7111    0.3729   -8.5398    1.0680   -7.5950    0.4885   -8.0559    0.2097   -7.7979    0.7623   -7.7979    0.7636
  9.670   -7.6350    0.3463   -8.4036    0.9409   -7.5394    0.4512   -7.9438    0.1868   -7.7250    0.6921   -7.7251    0.6935
  9.680   -7.5637    0.3233   -8.2760    0.8355   -7.4843    0.4183   -7.8415    0.1687   -7.6542    0.6319   -7.6545    0.6333
  9.690   -7.4967    0.3031   -8.1570    0.7472   -7.4304    0.3892   -7.7476    0.1543   -7.5861    0.5799   -7.5864    0.5814
  9.700   -7.4334    0.2853   -8.0461    0.6727   -7.3777    0.3634   -7.6611    0.1425   -7.5206    0.5348   -7.5211    0.5363
  9.710   -7.3736    0.2695   -7.9427    0.6095   -7.3264    0.3405   -7.5809    0.1329   -7.4579    0.4954   -7.4584    0.4969
  9.720   -7.3169    0.2554   -7.8463    0.5553   -7.2766    0.3200   -7.5062    0.1249   -7.3978    0.4608   -7.3984    0.4624
  9.730   -7.2628    0.2427   -7.7561    0.5087   -7.2283    0.3017   -7.4364    0.1182   -7.3403    0.4303   -7.3410    0.4318
  9.740   -7.2112    0.2313   -7.6716    0.4683   -7.1815    0.2852   -7.3709    0.1125   -7.2852    0.4032   -7.2859    0.4047
  9.750   -7.1619    0.2209   -7.5922    0.4330   -7.1361    0.2704   -7.3092    0.1077   -7.2323    0.3790   -7.2331    0.3806
  9.760   -7.1146    0.2115   -7.5176    0.4021   -7.0922    0.2570   -7.2509    0.1035   -7.1815    0.3574   -7.1823    0.3590
  9.770   -7.0691    0.2029   -7.4471    0.3749   -7.0495    0.2449   -7.1956    0.0999   -7.1327    0.3379   -7.1335    0.3395
  9.780   -7.0254    0.1950   -7.3805    0.3508   -7.0081    0.2338   -7.1429    0.0967   -7.0857    0.3204   -7.0866    0.3220
  9.790   -6.9831    0.1878   -7.3174    0.3293   -6.9679    0.2237   -7.0927    0.0939   -7.0404    0.3045   -7.0413    0.3061
  9.800   -6.9423    0.1811   -7.2574    0.3101   -6.9289    0.2145   -7.0448    0.0914   -6.9967    0.2900   -6.9977    0.2916
  9.810   -6.9029    0.1749   -7.2002    0.2930   -6.8909    0.2060   -6.9988    0.0892   -6.9545    0.2769   -6.9554    0.2785
  9.820   -6.8646    0.1692   -7.1457    0.2775   -6.8540    0.1982   -6.9546    0.0872   -6.9136    0.2648   -6.9146    0.2664
  9.830   -6.8275    0.1639   -7.0936    0.2635   -6.8180    0.1911   -6.9121    0.0854   -6.8740    0.2538   -6.8750    0.2554
  9.840   -6.7914    0.1589   -7.0437    0.2508   -6.7829    0.1844   -6.8711    0.0838   -6.8356    0.2436   -6.8366    0.2452
  9.850   -6.7563    0.1543   -6.9958    0.2393   -6.7486    0.1783   -6.8315    0.0823   -6.7983    0.2343   -6.7994    0.2358
  9.860   -6.7222    0.1500   -6.9497    0.2288   -6.7152    0.1726   -6.7931    0.0810   -6.7621    0.2256   -6.7631    0.2272
  9.870   -6.6888    0.1460   -6.9053    0.2192   -6.6825    0.1673   -6.7560    0.0797   -6.7268    0.2176   -6.7279    0.2191
  9.880   -6.6563    0.1422   -6.8626    0.2104   -6.6506    0.1624   -6.7200    0.0786   -6.6924    0.2101   -6.6935    0.2117
  9.890   -6.6246    0.1386   -6.8212    0.2023   -6.6193    0.1577   -6.6850    0.0775   -6.6589    0.2032   -6.6600    0.2048
  9.900   -6.5935    0.1353   -6.7813    0.1948   -6.5887    0.1534   -6.6509    0.0765   -6.6262    0.1968   -6.6273    0.1983
  9.910   -6.5631    0.1321   -6.7425    0.1879   -6.5588    0.1494   -6.6178    0.0756   -6.5943    0.1907   -6.5954    0.1923
  9.920   -6.5334    0.1291   -6.7050    0.1815   -6.5294    0.1456   -6.5854    0.0747   -6.5630    0.1851   -6.5642    0.1866
  9.930   -6.5042    0.1263   -6.6685    0.1756   -6.5005    0.1420   -6.5539    0.0738   -6.5325    0.1798   -6.5336    0.1814
  9.940   -6.4756    0.1236   -6.6331    0.1700   -6.4722    0.1387   -6.5230    0.0731   -6.5026    0.1749   -6.5037    0.1764
  9.950   -6.4475    0.1211   -6.5986    0.1649   -6.4444    0.1355   -6.4929    0.0723   -6.4733    0.1702   -6.4744    0.1717
  9.960   -6.4200    0.1187   -6.5650    0.1601   -6.4171    0.1325   -6.4634    0.0716   -6.4445    0.1658   -6.4457    0.1673
  9.970   -6.3929    0.1164   -6.5322    0.1556   -6.3902    0.1297   -6.4345    0.0710   -6.4163    0.1617   -6.4175    0.1632
  9.980   -6.3663    0.1143   -6.5002    0.1514   -6.3638    0.1270   -6.4061    0.0703   -6.3886    0.1578   -6.3898    0.1593
  9.990   -6.3401    0.1122   -6.4690    0.1475   -6.3378    0.1245   -6.3783    0.0697   -6.3615    0.1541   -6.3626    0.1556
 10.000   -6.3143    0.1102   -6.4384    0.1438   -6.3121    0.1221   -6.3511    0.0691   -6.3347    0.1506   -6.3359    0.1521
