# Macroscopic dielectric function obtained with the BS equation.
#  RPA L0 with KS energies and KS wavefunctions     LOCAL FIELD EFFECTS INCLUDED
# RESONANT-ONLY calculation
# Coulomb term constructed with full W(G1,G2)
# Scissor operator energy =  0.8000 [eV]
# Tolerance = -0.0010 0.0000
# npweps  = 113
# npwwfn  = 259
# nbands  = 8
# loband  = 2
# nkibz   = 3
# nkbz    = 8
# Lorentzian broadening =  0.0001 [eV]
# List of q-points for the optical limit:
# q =  0.938821, 0.000000, 0.000000, [Reduced coords] 
# q =  0.000000, 0.938821, 0.000000, [Reduced coords] 
# q =  0.000000, 0.000000, 0.938821, [Reduced coords] 
# q =  0.000000, 0.813043, 0.813043, [Reduced coords] 
# q =  0.813043, 0.000000, 0.813043, [Reduced coords] 
# q =  0.813043, 0.813043, 0.000000, [Reduced coords] 
# omega [eV]    RE(eps(q=1)) IM(eps(q=1) RE(eps(q=2) ) ... 
  0.000   29.3054    1.6462   29.2285    1.7657   29.2358    1.7618   29.2784    1.6417   29.3470    1.7749   29.3421    1.7809
  0.010   29.3988    1.6570   29.3214    1.7772   29.3287    1.7732   29.3717    1.6525   29.4406    1.7865   29.4356    1.7926
  0.020   29.4928    1.6680   29.4148    1.7888   29.4222    1.7848   29.4655    1.6634   29.5348    1.7983   29.5298    1.8043
  0.030   29.5874    1.6790   29.5089    1.8005   29.5163    1.7965   29.5600    1.6744   29.6296    1.8101   29.6246    1.8162
  0.040   29.6826    1.6901   29.6036    1.8123   29.6110    1.8084   29.6551    1.6855   29.7251    1.8221   29.7201    1.8282
  0.050   29.7785    1.7014   29.6989    1.8243   29.7064    1.8203   29.7509    1.6968   29.8212    1.8342   29.8162    1.8403
  0.060   29.8750    1.7128   29.7949    1.8364   29.8024    1.8324   29.8473    1.7081   29.9180    1.8464   29.9130    1.8525
  0.070   29.9722    1.7242   29.8916    1.8486   29.8991    1.8445   29.9444    1.7196   30.0154    1.8587   30.0104    1.8648
  0.080   30.0701    1.7358   29.9889    1.8609   29.9964    1.8568   30.0421    1.7312   30.1135    1.8712   30.1085    1.8773
  0.090   30.1686    1.7476   30.0869    1.8733   30.0944    1.8693   30.1405    1.7429   30.2123    1.8837   30.2072    1.8899
  0.100   30.2678    1.7594   30.1855    1.8859   30.1931    1.8818   30.2396    1.7547   30.3117    1.8965   30.3067    1.9026
  0.110   30.3677    1.7714   30.2848    1.8986   30.2925    1.8945   30.3393    1.7667   30.4119    1.9093   30.4068    1.9155
  0.120   30.4683    1.7835   30.3848    1.9114   30.3925    1.9073   30.4398    1.7788   30.5127    1.9223   30.5076    1.9285
  0.130   30.5695    1.7957   30.4855    1.9244   30.4932    1.9203   30.5410    1.7910   30.6142    1.9354   30.6091    1.9416
  0.140   30.6715    1.8080   30.5869    1.9375   30.5947    1.9334   30.6428    1.8033   30.7165    1.9487   30.7113    1.9549
  0.150   30.7742    1.8205   30.6890    1.9507   30.6968    1.9466   30.7454    1.8158   30.8195    1.9620   30.8143    1.9683
  0.160   30.8776    1.8331   30.7919    1.9641   30.7997    1.9600   30.8487    1.8284   30.9231    1.9756   30.9179    1.9819
  0.170   30.9818    1.8458   30.8954    1.9776   30.9032    1.9735   30.9527    1.8411   31.0276    1.9893   31.0223    1.9956
  0.180   31.0867    1.8587   30.9997    1.9913   31.0076    1.9871   31.0575    1.8540   31.1327    2.0031   31.1275    2.0094
  0.190   31.1923    1.8717   31.1047    2.0051   31.1126    2.0009   31.1630    1.8670   31.2386    2.0170   31.2334    2.0234
  0.200   31.2987    1.8849   31.2105    2.0190   31.2184    2.0148   31.2692    1.8801   31.3453    2.0311   31.3400    2.0375
  0.210   31.4059    1.8982   31.3170    2.0331   31.3250    2.0289   31.3762    1.8934   31.4527    2.0454   31.4474    2.0518
  0.220   31.5138    1.9116   31.4243    2.0474   31.4323    2.0431   31.4840    1.9068   31.5609    2.0598   31.5556    2.0662
  0.230   31.6225    1.9252   31.5323    2.0618   31.5404    2.0575   31.5926    1.9204   31.6699    2.0744   31.6646    2.0808
  0.240   31.7320    1.9389   31.6412    2.0763   31.6492    2.0721   31.7020    1.9341   31.7797    2.0891   31.7743    2.0956
  0.250   31.8422    1.9528   31.7508    2.0910   31.7589    2.0868   31.8121    1.9479   31.8902    2.1040   31.8849    2.1105
  0.260   31.9533    1.9668   31.8612    2.1059   31.8694    2.1016   31.9230    1.9620   32.0016    2.1191   31.9962    2.1255
  0.270   32.0652    1.9810   31.9724    2.1209   31.9806    2.1166   32.0348    1.9761   32.1138    2.1343   32.1084    2.1408
  0.280   32.1779    1.9953   32.0845    2.1361   32.0927    2.1318   32.1474    1.9905   32.2268    2.1497   32.2214    2.1562
  0.290   32.2915    2.0098   32.1973    2.1515   32.2056    2.1472   32.2608    2.0050   32.3406    2.1652   32.3352    2.1718
  0.300   32.4059    2.0245   32.3110    2.1670   32.3193    2.1627   32.3750    2.0196   32.4553    2.1810   32.4499    2.1875
  0.310   32.5211    2.0393   32.4256    2.1827   32.4339    2.1784   32.4901    2.0344   32.5709    2.1969   32.5654    2.2034
  0.320   32.6372    2.0543   32.5410    2.1986   32.5493    2.1942   32.6061    2.0494   32.6873    2.2129   32.6818    2.2195
  0.330   32.7542    2.0694   32.6572    2.2147   32.6656    2.2103   32.7229    2.0645   32.8046    2.2292   32.7990    2.2358
  0.340   32.8720    2.0848   32.7743    2.2309   32.7827    2.2265   32.8406    2.0799   32.9227    2.2456   32.9172    2.2523
  0.350   32.9908    2.1003   32.8923    2.2473   32.9008    2.2429   32.9592    2.0953   33.0418    2.2623   33.0362    2.2689
  0.360   33.1104    2.1159   33.0112    2.2639   33.0197    2.2595   33.0787    2.1110   33.1617    2.2791   33.1561    2.2857
  0.370   33.2309    2.1318   33.1310    2.2807   33.1395    2.2763   33.1991    2.1269   33.2826    2.2961   33.2770    2.3028
  0.380   33.3524    2.1478   33.2517    2.2977   33.2603    2.2932   33.3204    2.1429   33.4044    2.3133   33.3987    2.3200
  0.390   33.4748    2.1641   33.3733    2.3149   33.3819    2.3104   33.4427    2.1591   33.5271    2.3307   33.5214    2.3374
  0.400   33.5981    2.1805   33.4959    2.3322   33.5045    2.3277   33.5659    2.1755   33.6507    2.3483   33.6451    2.3550
  0.410   33.7224    2.1971   33.6194    2.3498   33.6281    2.3453   33.6900    2.1921   33.7754    2.3661   33.7697    2.3728
  0.420   33.8477    2.2139   33.7438    2.3676   33.7526    2.3630   33.8151    2.2089   33.9009    2.3841   33.8952    2.3908
  0.430   33.9739    2.2308   33.8692    2.3855   33.8780    2.3810   33.9412    2.2259   34.0275    2.4023   34.0218    2.4091
  0.440   34.1011    2.2480   33.9956    2.4037   34.0044    2.3992   34.0682    2.2430   34.1551    2.4207   34.1493    2.4275
  0.450   34.2293    2.2654   34.1230    2.4221   34.1319    2.4176   34.1963    2.2604   34.2836    2.4394   34.2778    2.4462
  0.460   34.3585    2.2830   34.2514    2.4407   34.2603    2.4362   34.3254    2.2780   34.4132    2.4582   34.4074    2.4651
  0.470   34.4888    2.3008   34.3808    2.4596   34.3897    2.4550   34.4554    2.2958   34.5438    2.4773   34.5379    2.4842
  0.480   34.6200    2.3188   34.5112    2.4786   34.5202    2.4740   34.5866    2.3138   34.6754    2.4966   34.6695    2.5035
  0.490   34.7523    2.3371   34.6427    2.4979   34.6517    2.4933   34.7187    2.3321   34.8081    2.5162   34.8022    2.5231
  0.500   34.8857    2.3555   34.7752    2.5174   34.7842    2.5128   34.8519    2.3505   34.9418    2.5360   34.9359    2.5429
  0.510   35.0202    2.3742   34.9087    2.5372   34.9178    2.5325   34.9862    2.3692   35.0766    2.5560   35.0707    2.5629
  0.520   35.1557    2.3931   35.0433    2.5571   35.0525    2.5525   35.1216    2.3881   35.2125    2.5762   35.2066    2.5832
  0.530   35.2923    2.4122   35.1791    2.5774   35.1882    2.5727   35.2581    2.4072   35.3495    2.5967   35.3435    2.6037
  0.540   35.4301    2.4316   35.3159    2.5978   35.3251    2.5931   35.3957    2.4266   35.4876    2.6175   35.4816    2.6245
  0.550   35.5689    2.4512   35.4538    2.6185   35.4631    2.6138   35.5344    2.4462   35.6269    2.6385   35.6209    2.6455
  0.560   35.7089    2.4710   35.5929    2.6395   35.6022    2.6348   35.6742    2.4660   35.7673    2.6598   35.7612    2.6668
  0.570   35.8501    2.4911   35.7331    2.6607   35.7424    2.6560   35.8152    2.4861   35.9088    2.6813   35.9028    2.6884
  0.580   35.9924    2.5115   35.8744    2.6822   35.8838    2.6775   35.9574    2.5064   36.0515    2.7031   36.0454    2.7102
  0.590   36.1359    2.5321   36.0170    2.7040   36.0264    2.6992   36.1007    2.5270   36.1954    2.7252   36.1893    2.7323
  0.600   36.2806    2.5529   36.1607    2.7260   36.1702    2.7212   36.2453    2.5479   36.3405    2.7475   36.3344    2.7546
  0.610   36.4265    2.5740   36.3056    2.7483   36.3151    2.7435   36.3910    2.5690   36.4869    2.7701   36.4807    2.7773
  0.620   36.5737    2.5954   36.4517    2.7709   36.4613    2.7661   36.5380    2.5904   36.6344    2.7930   36.6282    2.8002
  0.630   36.7221    2.6171   36.5991    2.7937   36.6087    2.7889   36.6862    2.6120   36.7832    2.8162   36.7770    2.8234
  0.640   36.8717    2.6390   36.7477    2.8169   36.7573    2.8120   36.8357    2.6340   36.9333    2.8397   36.9270    2.8469
  0.650   37.0226    2.6612   36.8975    2.8403   36.9072    2.8355   36.9864    2.6562   37.0846    2.8635   37.0784    2.8707
  0.660   37.1748    2.6837   37.0487    2.8641   37.0584    2.8592   37.1385    2.6787   37.2372    2.8876   37.2310    2.8948
  0.670   37.3283    2.7065   37.2011    2.8881   37.2109    2.8832   37.2918    2.7015   37.3912    2.9120   37.3849    2.9193
  0.680   37.4832    2.7296   37.3549    2.9125   37.3647    2.9076   37.4465    2.7246   37.5465    2.9368   37.5402    2.9440
  0.690   37.6394    2.7530   37.5099    2.9372   37.5198    2.9322   37.6025    2.7480   37.7031    2.9618   37.6968    2.9691
  0.700   37.7969    2.7766   37.6664    2.9622   37.6763    2.9572   37.7599    2.7717   37.8611    2.9872   37.8547    2.9945
  0.710   37.9558    2.8007   37.8242    2.9875   37.8341    2.9825   37.9187    2.7957   38.0205    3.0129   38.0141    3.0202
  0.720   38.1162    2.8250   37.9833    3.0131   37.9933    3.0081   38.0788    2.8200   38.1812    3.0389   38.1748    3.0463
  0.730   38.2779    2.8496   38.1439    3.0391   38.1540    3.0341   38.2404    2.8447   38.3434    3.0653   38.3370    3.0727
  0.740   38.4411    2.8746   38.3059    3.0654   38.3160    3.0604   38.4034    2.8697   38.5071    3.0921   38.5006    3.0994
  0.750   38.6057    2.8999   38.4693    3.0921   38.4795    3.0871   38.5678    2.8950   38.6722    3.1192   38.6657    3.1266
  0.760   38.7718    2.9255   38.6342    3.1192   38.6444    3.1141   38.7337    2.9206   38.8387    3.1466   38.8322    3.1540
  0.770   38.9394    2.9515   38.8005    3.1466   38.8108    3.1415   38.9011    2.9467   39.0068    3.1745   39.0003    3.1819
  0.780   39.1085    2.9779   38.9684    3.1743   38.9787    3.1692   39.0701    2.9730   39.1764    3.2027   39.1698    3.2101
  0.790   39.2791    3.0046   39.1377    3.2025   39.1481    3.1974   39.2405    2.9997   39.3475    3.2313   39.3409    3.2387
  0.800   39.4513    3.0317   39.3086    3.2310   39.3190    3.2259   39.4125    3.0268   39.5202    3.2603   39.5136    3.2677
  0.810   39.6250    3.0591   39.4811    3.2599   39.4916    3.2548   39.5861    3.0543   39.6944    3.2897   39.6878    3.2971
  0.820   39.8004    3.0870   39.6551    3.2892   39.6656    3.2841   39.7613    3.0822   39.8703    3.3194   39.8637    3.3270
  0.830   39.9774    3.1152   39.8308    3.3190   39.8413    3.3138   39.9381    3.1104   40.0478    3.3497   40.0411    3.3572
  0.840   40.1560    3.1438   40.0080    3.3491   40.0187    3.3439   40.1165    3.1390   40.2269    3.3803   40.2202    3.3878
  0.850   40.3363    3.1728   40.1869    3.3796   40.1976    3.3744   40.2966    3.1681   40.4077    3.4113   40.4010    3.4189
  0.860   40.5183    3.2022   40.3675    3.4106   40.3782    3.4054   40.4784    3.1975   40.5902    3.4428   40.5835    3.4504
  0.870   40.7019    3.2321   40.5498    3.4420   40.5606    3.4368   40.6619    3.2274   40.7745    3.4748   40.7677    3.4824
  0.880   40.8874    3.2624   40.7338    3.4739   40.7446    3.4686   40.8472    3.2577   40.9604    3.5072   40.9536    3.5148
  0.890   41.0746    3.2931   40.9195    3.5062   40.9304    3.5009   41.0342    3.2884   41.1482    3.5400   41.1414    3.5476
  0.900   41.2635    3.3242   41.1070    3.5390   41.1180    3.5337   41.2230    3.3196   41.3377    3.5733   41.3309    3.5810
  0.910   41.4543    3.3558   41.2963    3.5722   41.3073    3.5669   41.4136    3.3512   41.5291    3.6071   41.5222    3.6148
  0.920   41.6470    3.3879   41.4874    3.6059   41.4985    3.6006   41.6060    3.3833   41.7223    3.6414   41.7154    3.6491
  0.930   41.8415    3.4204   41.6804    3.6401   41.6915    3.6348   41.8004    3.4159   41.9173    3.6762   41.9104    3.6839
  0.940   42.0378    3.4534   41.8752    3.6748   41.8864    3.6695   41.9966    3.4489   42.1143    3.7115   42.1074    3.7193
  0.950   42.2362    3.4869   42.0719    3.7100   42.0831    3.7046   42.1947    3.4824   42.3132    3.7474   42.3062    3.7551
  0.960   42.4364    3.5209   42.2706    3.7458   42.2818    3.7404   42.3948    3.5165   42.5140    3.7837   42.5071    3.7915
  0.970   42.6387    3.5554   42.4712    3.7820   42.4825    3.7766   42.5968    3.5510   42.7169    3.8206   42.7099    3.8284
  0.980   42.8429    3.5904   42.6737    3.8188   42.6851    3.8134   42.8009    3.5861   42.9217    3.8581   42.9147    3.8658
  0.990   43.0492    3.6259   42.8784    3.8562   42.8898    3.8507   43.0070    3.6216   43.1286    3.8961   43.1216    3.9039
  1.000   43.2576    3.6620   43.0850    3.8941   43.0965    3.8886   43.2152    3.6578   43.3376    3.9347   43.3305    3.9425
  1.010   43.4680    3.6986   43.2937    3.9325   43.3053    3.9270   43.4254    3.6945   43.5487    3.9739   43.5416    3.9817
  1.020   43.6806    3.7358   43.5046    3.9716   43.5162    3.9661   43.6379    3.7317   43.7619    4.0136   43.7548    4.0214
  1.030   43.8954    3.7736   43.7175    4.0112   43.7292    4.0057   43.8524    3.7695   43.9773    4.0540   43.9702    4.0618
  1.040   44.1123    3.8119   43.9327    4.0515   43.9444    4.0460   44.0692    3.8079   44.1950    4.0950   44.1878    4.1029
  1.050   44.3315    3.8509   44.1500    4.0924   44.1618    4.0868   44.2882    3.8469   44.4148    4.1366   44.4076    4.1445
  1.060   44.5530    3.8904   44.3696    4.1339   44.3815    4.1283   44.5095    3.8865   44.6369    4.1789   44.6297    4.1868
  1.070   44.7768    3.9306   44.5914    4.1761   44.6034    4.1705   44.7331    3.9268   44.8614    4.2219   44.8541    4.2298
  1.080   45.0029    3.9714   44.8156    4.2189   44.8276    4.2133   44.9590    3.9677   45.0882    4.2655   45.0809    4.2734
  1.090   45.2313    4.0129   45.0421    4.2624   45.0542    4.2568   45.1873    4.0092   45.3173    4.3098   45.3100    4.3178
  1.100   45.4622    4.0550   45.2710    4.3066   45.2832    4.3009   45.4180    4.0514   45.5489    4.3549   45.5416    4.3628
  1.110   45.6956    4.0978   45.5023    4.3515   45.5145    4.3458   45.6511    4.0943   45.7830    4.4006   45.7756    4.4086
  1.120   45.9314    4.1413   45.7361    4.3971   45.7484    4.3914   45.8868    4.1378   46.0195    4.4471   46.0122    4.4551
  1.130   46.1698    4.1855   45.9724    4.4434   45.9847    4.4377   46.1250    4.1821   46.2586    4.4943   46.2512    4.5023
  1.140   46.4107    4.2305   46.2112    4.4905   46.2236    4.4848   46.3657    4.2271   46.5003    4.5424   46.4929    4.5503
  1.150   46.6543    4.2761   46.4526    4.5384   46.4651    4.5326   46.6091    4.2729   46.7446    4.5912   46.7372    4.5991
  1.160   46.9005    4.3225   46.6966    4.5870   46.7092    4.5812   46.8552    4.3194   46.9916    4.6408   46.9841    4.6487
  1.170   47.1495    4.3697   46.9433    4.6364   46.9559    4.6307   47.1039    4.3667   47.2413    4.6912   47.2338    4.6992
  1.180   47.4011    4.4177   47.1927    4.6867   47.2054    4.6809   47.3554    4.4147   47.4937    4.7424   47.4862    4.7504
  1.190   47.6556    4.4665   47.4449    4.7378   47.4576    4.7320   47.6097    4.4636   47.7490    4.7946   47.7414    4.8026
  1.200   47.9129    4.5161   47.6998    4.7897   47.7126    4.7839   47.8668    4.5134   48.0071    4.8476   47.9995    4.8556
  1.210   48.1731    4.5666   47.9576    4.8426   47.9705    4.8367   48.1268    4.5639   48.2680    4.9015   48.2605    4.9095
  1.220   48.4362    4.6179   48.2183    4.8963   48.2313    4.8904   48.3898    4.6154   48.5320    4.9563   48.5244    4.9643
  1.230   48.7024    4.6701   48.4820    4.9509   48.4950    4.9450   48.6557    4.6677   48.7989    5.0120   48.7913    5.0201
  1.240   48.9715    4.7232   48.7486    5.0065   48.7617    5.0006   48.9247    4.7209   49.0689    5.0688   49.0613    5.0768
  1.250   49.2438    4.7773   49.0183    5.0630   49.0315    5.0571   49.1968    4.7751   49.3420    5.1265   49.3344    5.1345
  1.260   49.5192    4.8322   49.2911    5.1205   49.3043    5.1146   49.4720    4.8302   49.6182    5.1852   49.6106    5.1932
  1.270   49.7978    4.8882   49.5670    5.1791   49.5803    5.1731   49.7504    4.8863   49.8977    5.2449   49.8900    5.2530
  1.280   50.0796    4.9451   49.8462    5.2386   49.8595    5.2326   50.0321    4.9433   50.1804    5.3058   50.1727    5.3138
  1.290   50.3648    5.0031   50.1286    5.2992   50.1420    5.2932   50.3170    5.0015   50.4664    5.3676   50.4587    5.3757
  1.300   50.6533    5.0621   50.4143    5.3609   50.4278    5.3548   50.6054    5.0606   50.7559    5.4306   50.7481    5.4387
  1.310   50.9453    5.1222   50.7035    5.4236   50.7170    5.4176   50.8972    5.1208   51.0487    5.4948   51.0410    5.5028
  1.320   51.2407    5.1833   50.9960    5.4875   51.0097    5.4815   51.1925    5.1822   51.3451    5.5601   51.3373    5.5681
  1.330   51.5397    5.2456   51.2921    5.5526   51.3058    5.5465   51.4913    5.2446   51.6450    5.6265   51.6373    5.6346
  1.340   51.8424    5.3090   51.5917    5.6188   51.6055    5.6127   51.7938    5.3082   51.9486    5.6942   51.9408    5.7023
  1.350   52.1487    5.3736   51.8950    5.6863   51.9088    5.6802   52.1000    5.3730   52.2559    5.7632   52.2481    5.7713
  1.360   52.4588    5.4394   52.2019    5.7550   52.2159    5.7489   52.4099    5.4390   52.5669    5.8334   52.5591    5.8415
  1.370   52.7727    5.5065   52.5127    5.8250   52.5267    5.8188   52.7236    5.5062   52.8818    5.9050   52.8740    5.9130
  1.380   53.0904    5.5748   52.8272    5.8962   52.8413    5.8901   53.0412    5.5747   53.2006    5.9779   53.1927    5.9859
  1.390   53.4122    5.6444   53.1457    5.9689   53.1599    5.9627   53.3629    5.6445   53.5233    6.0522   53.5155    6.0602
  1.400   53.7380    5.7153   53.4681    6.0429   53.4824    6.0367   53.6885    5.7157   53.8501    6.1279   53.8423    6.1359
  1.410   54.0679    5.7877   53.7946    6.1183   53.8090    6.1121   54.0183    5.7882   54.1811    6.2050   54.1732    6.2130
  1.420   54.4021    5.8614   54.1253    6.1951   54.1397    6.1889   54.3523    5.8622   54.5162    6.2836   54.5084    6.2917
  1.430   54.7405    5.9365   54.4601    6.2734   54.4746    6.2672   54.6905    5.9376   54.8557    6.3638   54.8478    6.3718
  1.440   55.0832    6.0131   54.7992    6.3533   54.8138    6.3471   55.0331    6.0144   55.1995    6.4455   55.1916    6.4535
  1.450   55.4304    6.0913   55.1427    6.4347   55.1574    6.4285   55.3802    6.0928   55.5478    6.5289   55.5399    6.5369
  1.460   55.7822    6.1710   55.4907    6.5178   55.5055    6.5115   55.7318    6.1728   55.9006    6.6139   55.8927    6.6219
  1.470   56.1385    6.2523   55.8432    6.6024   55.8581    6.5961   56.0881    6.2544   56.2581    6.7006   56.2502    6.7086
  1.480   56.4996    6.3352   56.2004    6.6888   56.2153    6.6825   56.4490    6.3376   56.6203    6.7891   56.6124    6.7970
  1.490   56.8655    6.4198   56.5623    6.7769   56.5772    6.7706   56.8148    6.4225   56.9873    6.8793   56.9794    6.8872
  1.500   57.2363    6.5062   56.9290    6.8668   56.9440    6.8604   57.1854    6.5092   57.3592    6.9714   57.3513    6.9793
  1.510   57.6121    6.5943   57.3006    6.9585   57.3157    6.9521   57.5611    6.5976   57.7362    7.0654   57.7282    7.0733
  1.520   57.9929    6.6843   57.6772    7.0521   57.6925    7.0457   57.9419    6.6879   58.1182    7.1613   58.1103    7.1692
  1.530   58.3790    6.7761   58.0590    7.1476   58.0743    7.1412   58.3279    6.7801   58.5055    7.2592   58.4976    7.2671
  1.540   58.7705    6.8699   58.4459    7.2451   58.4614    7.2387   58.7192    6.8743   58.8981    7.3592   58.8902    7.3670
  1.550   59.1673    6.9656   58.8383    7.3447   58.8538    7.3383   59.1160    6.9704   59.2962    7.4613   59.2883    7.4691
  1.560   59.5697    7.0634   59.2360    7.4463   59.2516    7.4399   59.5183    7.0686   59.6998    7.5655   59.6919    7.5733
  1.570   59.9777    7.1634   59.6393    7.5502   59.6550    7.5437   59.9262    7.1689   60.1091    7.6720   60.1012    7.6798
  1.580   60.3915    7.2654   60.0483    7.6562   60.0641    7.6498   60.3400    7.2714   60.5242    7.7808   60.5163    7.7886
  1.590   60.8112    7.3698   60.4631    7.7646   60.4789    7.7581   60.7596    7.3762   60.9451    7.8920   60.9373    7.8997
  1.600   61.2369    7.4764   60.8838    7.8753   60.8997    7.8688   61.1853    7.4832   61.3722    8.0056   61.3643    8.0133
  1.610   61.6688    7.5853   61.3105    7.9884   61.3265    7.9819   61.6171    7.5927   61.8054    8.1217   61.7975    8.1294
  1.620   62.1070    7.6967   61.7434    8.1040   61.7595    8.0975   62.0553    7.7046   62.2448    8.2404   62.2370    8.2480
  1.630   62.5516    7.8106   62.1826    8.2222   62.1988    8.2157   62.4998    7.8190   62.6908    8.3618   62.6830    8.3694
  1.640   63.0027    7.9271   62.6283    8.3430   62.6446    8.3365   62.9510    7.9360   63.1433    8.4859   63.1355    8.4934
  1.650   63.4606    8.0463   63.0805    8.4666   63.0969    8.4601   63.4088    8.0557   63.6025    8.6129   63.5948    8.6203
  1.660   63.9253    8.1682   63.5395    8.5930   63.5560    8.5865   63.8735    8.1782   64.0686    8.7427   64.0609    8.7502
  1.670   64.3971    8.2929   64.0053    8.7223   64.0219    8.7157   64.3453    8.3035   64.5418    8.8756   64.5341    8.8830
  1.680   64.8760    8.4206   64.4782    8.8546   64.4949    8.8480   64.8242    8.4318   65.0221    9.0116   65.0144    9.0189
  1.690   65.3622    8.5512   64.9583    8.9899   64.9751    8.9833   65.3105    8.5631   65.5098    9.1507   65.5022    9.1580
  1.700   65.8560    8.6850   65.4458    9.1285   65.4626    9.1219   65.8043    8.6975   66.0050    9.2932   65.9974    9.3004
  1.710   66.3574    8.8220   65.9407    9.2703   65.9577    9.2637   66.3058    8.8352   66.5079    9.4391   66.5004    9.4462
  1.720   66.8667    8.9622   66.4434    9.4155   66.4605    9.4089   66.8152    8.9762   67.0187    9.5884   67.0112    9.5955
  1.730   67.3841    9.1059   66.9540    9.5642   66.9711    9.5576   67.3326    9.1206   67.5376    9.7415   67.5301    9.7485
  1.740   67.9097    9.2532   67.4726    9.7165   67.4899    9.7099   67.8583    9.2686   68.0646    9.8982   68.0572    9.9052
  1.750   68.4437    9.4040   67.9995    9.8726   68.0169    9.8659   68.3924    9.4203   68.6002   10.0589   68.5928   10.0658
  1.760   68.9863    9.5587   68.5348   10.0325   68.5523   10.0258   68.9351    9.5758   69.1444   10.2235   69.1370   10.2303
  1.770   69.5378    9.7172   69.0788   10.1963   69.0964   10.1897   69.4867    9.7352   69.6974   10.3923   69.6901   10.3990
  1.780   70.0983    9.8798   69.6317   10.3643   69.6494   10.3577   70.0474    9.8987   70.2595   10.5653   70.2523   10.5720
  1.790   70.6681   10.0465   70.1937   10.5366   70.2114   10.5299   70.6174   10.0664   70.8309   10.7428   70.8237   10.7494
  1.800   71.2474   10.2176   70.7649   10.7132   70.7828   10.7065   71.1969   10.2384   71.4118   10.9248   71.4047   10.9313
  1.810   71.8365   10.3931   71.3457   10.8944   71.3637   10.8877   71.7862   10.4149   72.0025   11.1116   71.9955   11.1180
  1.820   72.4355   10.5732   71.9363   11.0803   71.9543   11.0736   72.3854   10.5961   72.6031   11.3033   72.5962   11.3096
  1.830   73.0448   10.7581   72.5369   11.2711   72.5550   11.2644   72.9950   10.7821   73.2140   11.5000   73.2072   11.5062
  1.840   73.6646   10.9479   73.1477   11.4669   73.1660   11.4602   73.6150   10.9732   73.8355   11.7020   73.8288   11.7082
  1.850   74.2952   11.1429   73.7691   11.6680   73.7875   11.6613   74.2459   11.1694   74.4677   11.9095   74.4611   11.9155
  1.860   74.9368   11.3432   74.4013   11.8744   74.4197   11.8677   74.8878   11.3709   75.1109   12.1226   75.1044   12.1285
  1.870   75.5897   11.5490   75.0446   12.0865   75.0631   12.0798   75.5411   11.5780   75.7656   12.3415   75.7592   12.3473
  1.880   76.2543   11.7605   75.6992   12.3044   75.7179   12.2977   76.2060   11.7910   76.4318   12.5665   76.4255   12.5722
  1.890   76.9308   11.9780   76.3655   12.5283   76.3843   12.5216   76.8830   12.0098   77.1100   12.7978   77.1039   12.8034
  1.900   77.6196   12.2016   77.0438   12.7585   77.0627   12.7518   77.5722   12.2350   77.8005   13.0357   77.7945   13.0411
  1.910   78.3210   12.4316   77.7344   12.9952   77.7533   12.9885   78.2740   12.4665   78.5035   13.2803   78.4977   13.2856
  1.920   79.0353   12.6682   78.4376   13.2386   78.4566   13.2319   78.9888   12.7048   79.2196   13.5319   79.2138   13.5371
  1.930   79.7629   12.9117   79.1538   13.4891   79.1729   13.4824   79.7169   12.9500   79.9488   13.7909   79.9433   13.7959
  1.940   80.5042   13.1624   79.8833   13.7468   79.9025   13.7401   80.4587   13.2025   80.6918   14.0575   80.6864   14.0623
  1.950   81.2595   13.4206   80.6265   14.0120   80.6458   14.0054   81.2146   13.4625   81.4488   14.3319   81.4436   14.3366
  1.960   82.0292   13.6865   81.3838   14.2852   81.4032   14.2785   81.9849   13.7303   82.2201   14.6146   82.2151   14.6191
  1.970   82.8138   13.9604   82.1555   14.5665   82.1750   14.5598   82.7702   14.0063   83.0064   14.9058   83.0015   14.9102
  1.980   83.6136   14.2427   82.9421   14.8563   82.9617   14.8496   83.5707   14.2908   83.8078   15.2059   83.8032   15.2101
  1.990   84.4292   14.5338   83.7440   15.1549   83.7637   15.1483   84.3869   14.5841   84.6249   15.5153   84.6206   15.5193
  2.000   85.2608   14.8339   84.5616   15.4628   84.5814   15.4561   85.2194   14.8865   85.4582   15.8344   85.4541   15.8382
  2.010   86.1091   15.1436   85.3954   15.7802   85.4153   15.7736   86.0685   15.1986   86.3081   16.1634   86.3042   16.1671
  2.020   86.9746   15.4631   86.2459   16.1077   86.2659   16.1011   86.9347   15.5207   87.1750   16.5030   87.1714   16.5064
  2.030   87.8576   15.7929   87.1135   16.4456   87.1336   16.4390   87.8187   15.8532   88.0595   16.8535   88.0562   16.8567
  2.040   88.7588   16.1335   87.9988   16.7943   88.0190   16.7878   88.7208   16.1966   88.9621   17.2154   88.9591   17.2184
  2.050   89.6786   16.4853   88.9022   17.1545   88.9225   17.1479   89.6416   16.5513   89.8834   17.5891   89.8807   17.5919
  2.060   90.6178   16.8488   89.8244   17.5264   89.8447   17.5199   90.5818   16.9179   90.8239   17.9753   90.8215   17.9779
  2.070   91.5768   17.2245   90.7659   17.9107   90.7863   17.9042   91.5419   17.2969   91.7841   18.3745   91.7821   18.3768
  2.080   92.5562   17.6131   91.7272   18.3080   91.7477   18.3015   92.5225   17.6889   92.7648   18.7873   92.7631   18.7893
  2.090   93.5568   18.0150   92.7090   18.7187   92.7296   18.7122   93.5243   18.0944   93.7665   19.2142   93.7652   19.2160
  2.100   94.5791   18.4310   93.7120   19.1436   93.7327   19.1371   94.5479   18.5141   94.7898   19.6560   94.7890   19.6575
  2.110   95.6239   18.8616   94.7368   19.5832   94.7575   19.5768   95.5940   18.9486   95.8355   20.1133   95.8351   20.1146
  2.120   96.6918   19.3076   95.7840   20.0383   95.8048   20.0319   96.6634   19.3987   96.9043   20.5869   96.9043   20.5879
  2.130   97.7837   19.7696   96.8544   20.5096   96.8752   20.5032   97.7567   19.8651   97.9969   21.0776   97.9974   21.0782
  2.140   98.9002   20.2486   97.9487   20.9979   97.9696   20.9915   98.8748   20.3486   99.1140   21.5861   99.1150   21.5864
  2.150  100.0423   20.7452   99.0677   21.5040   99.0887   21.4977  100.0184   20.8501  100.2564   22.1134  100.2580   22.1134
  2.160  101.2107   21.2604  100.2123   22.0287  100.2333   22.0224  101.1885   21.3703  101.4250   22.6603  101.4272   22.6600
  2.170  102.4063   21.7951  101.3831   22.5730  101.4042   22.5668  102.3859   21.9104  102.6207   23.2279  102.6234   23.2272
  2.180  103.6300   22.3503  102.5812   23.1380  102.6023   23.1318  103.6114   22.4712  103.8442   23.8172  103.8476   23.8162
  2.190  104.8828   22.9270  103.8074   23.7245  103.8285   23.7183  104.8662   23.0539  105.0966   24.4294  105.1007   24.4279
  2.200  106.1656   23.5265  105.0626   24.3338  105.0837   24.3276  106.1510   23.6595  106.3787   25.0655  106.3836   25.0637
  2.210  107.4796   24.1498  106.3478   24.9670  106.3689   24.9609  107.4670   24.2894  107.6917   25.7269  107.6973   25.7247
  2.220  108.8256   24.7982  107.6640   25.6253  107.6852   25.6193  108.8153   24.9448  109.0365   26.4149  109.0429   26.4123
  2.230  110.2050   25.4731  109.0123   26.3102  109.0335   26.3042  110.1969   25.6271  110.4142   27.1309  110.4215   27.1279
  2.240  111.6187   26.1759  110.3939   27.0230  110.4150   27.0170  111.6130   26.3377  111.8259   27.8766  111.8341   27.8731
  2.250  113.0681   26.9083  111.8097   27.7653  111.8308   27.7594  113.0648   27.0782  113.2728   28.6534  113.2820   28.6494
  2.260  114.5543   27.6718  113.2610   28.5388  113.2821   28.5328  114.5536   27.8504  114.7562   29.4631  114.7664   29.4588
  2.270  116.0788   28.4681  114.7491   29.3450  114.7702   29.3391  116.0807   28.6560  116.2772   30.3077  116.2885   30.3029
  2.280  117.6428   29.2993  116.2753   30.1860  116.2963   30.1801  117.6474   29.4970  117.8371   31.1891  117.8496   31.1838
  2.290  119.2478   30.1674  117.8408   31.0637  117.8617   31.0579  119.2552   30.3753  119.4374   32.1095  119.4511   32.1036
  2.300  120.8952   31.0744  119.4470   31.9802  119.4679   31.9745  120.9055   31.2933  121.0794   33.0711  121.0944   33.0647
  2.310  122.5865   32.0228  121.0954   32.9379  121.1162   32.9322  122.5998   32.2533  122.7646   34.0764  122.7810   34.0695
  2.320  124.3234   33.0150  122.7875   33.9393  122.8082   33.9335  124.3398   33.2579  124.4945   35.1281  124.5124   35.1206
  2.330  126.1075   34.0538  124.5249   34.9869  124.5454   34.9812  126.1271   34.3098  126.2706   36.2289  126.2901   36.2210
  2.340  127.9406   35.1421  126.3090   36.0836  126.3294   36.0779  127.9634   35.4120  128.0945   37.3820  128.1157   37.3735
  2.350  129.8243   36.2830  128.1416   37.2325  128.1618   37.2268  129.8504   36.5677  129.9680   38.5907  129.9910   38.5817
  2.360  131.7605   37.4798  130.0244   38.4369  130.0444   38.4312  131.7900   37.7804  131.8927   39.8585  131.9176   39.8489
  2.370  133.7512   38.7363  131.9592   39.7003  131.9789   39.6946  133.7840   39.0536  133.8703   41.1891  133.8972   41.1790
  2.380  135.7982   40.0562  133.9476   41.0266  133.9671   41.0209  135.8344   40.3915  135.9027   42.5869  135.9318   42.5762
  2.390  137.9036   41.4440  135.9917   42.4199  136.0110   42.4142  137.9432   41.7984  137.9916   44.0562  138.0231   44.0449
  2.400  140.0694   42.9042  138.0934   43.8848  138.1123   43.8790  140.1125   43.2791  140.1390   45.6018  140.1730   45.5900
  2.410  142.2978   44.4418  140.2544   45.4260  140.2730   45.4202  142.3443   44.8385  142.3467   47.2290  142.3834   47.2166
  2.420  144.5909   46.0622  142.4770   47.0488  142.4951   47.0430  144.6407   46.4822  144.6167   48.9434  144.6562   48.9306
  2.430  146.9510   47.7713  144.7629   48.7590  144.7807   48.7531  147.0039   48.2162  146.9509   50.7513  146.9934   50.7379
  2.440  149.3802   49.5754  147.1144   50.5627  147.1317   50.5567  149.4361   50.0470  149.3511   52.6591  149.3969   52.6454
  2.450  151.8807   51.4816  149.5333   52.4667  149.5500   52.4605  151.9394   51.9817  151.8192   54.6743  151.8685   54.6601
  2.460  154.4548   53.4973  152.0216   54.4782  152.0378   54.4718  154.5160   54.0280  154.3570   56.8047  154.4101   56.7902
  2.470  157.1047   55.6307  154.5814   56.6051  154.5970   56.5985  157.1680   56.1944  156.9663   59.0589  157.0235   59.0440
  2.480  159.8325   57.8910  157.2145   58.8563  157.2294   58.8494  159.8974   58.4899  159.6487   61.4461  159.7102   61.4311
  2.490  162.6402   60.2878  159.9226   61.2410  159.9368   61.2338  162.7062   60.9246  162.4056   63.9767  162.4718   63.9615
  2.500  165.5297   62.8318  162.7074   63.7696  162.7208   63.7621  165.5961   63.5094  165.2382   66.6616  165.3094   66.6464
  2.510  168.5028   65.5349  165.5704   66.4534  165.5829   66.4454  168.5687   66.2563  168.1476   69.5131  168.2242   69.4980
  2.520  171.5608   68.4097  168.5126   69.3046  168.5242   69.2961  171.6252   69.1784  171.1343   72.5443  171.2166   72.5296
  2.530  174.7050   71.4704  171.5350   72.3367  171.5455   72.3276  174.7665   72.2899  174.1984   75.7698  174.2870   75.7556
  2.540  177.9360   74.7323  174.6379   75.5644  174.6473   75.5546  177.9932   75.6066  177.3396   79.2053  177.4349   79.1918
  2.550  181.2539   78.2123  177.8211   79.0037  177.8295   78.9931  181.3049   79.1456  180.5568   82.8682  180.6593   82.8558
  2.560  184.6583   81.9289  181.0840   82.6724  181.0911   82.6609  184.7009   82.9258  183.8479   86.7774  183.9582   86.7663
  2.570  188.1476   85.9023  184.4248   86.5897  184.4305   86.5770  188.1792   86.9680  187.2100   90.9535  187.3286   90.9442
  2.580  191.7195   90.1549  187.8409   90.7768  187.8451   90.7628  191.7369   91.2946  190.6387   95.4192  190.7663   95.4122
  2.590  195.3700   94.7110  191.3281   95.2569  191.3308   95.2413  195.3696   95.9307  194.1280  100.1992  194.2653  100.1950
  2.600  199.0937   99.5974  194.8810  100.0552  194.8821  100.0379  199.0711  100.9034  197.6702  105.3204  197.8178  105.3197
  2.610  202.8831  104.8435  198.4921  105.1995  198.4915  105.1801  202.8330  106.2424  201.2548  110.8122  201.4137  110.8157
  2.620  206.7282  110.4812  202.1515  110.7200  202.1491  110.6983  206.6444  111.9804  204.8690  116.7064  205.0397  116.7152
  2.630  210.6160  116.5457  205.8464  116.6498  205.8422  116.6254  210.4911  118.1527  208.4960  123.0378  208.6795  123.0528
  2.640  214.5297  123.0750  209.5607  123.0247  209.5546  122.9971  214.3551  124.7980  212.1153  129.8436  212.3124  129.8661
  2.650  218.4481  130.1105  213.2738  129.8836  213.2659  129.8524  218.2135  131.9580  215.7010  137.1640  215.9126  137.1954
  2.660  222.3445  137.6969  216.9604  137.2685  216.9507  137.2330  222.0379  139.6776  219.2216  145.0419  219.4486  145.0840
  2.670  226.1857  145.8823  220.5887  145.2241  220.5772  145.1839  225.7929  148.0051  222.6382  153.5227  222.8813  153.5775
  2.680  229.9306  154.7177  224.1197  153.7986  224.1067  153.7528  229.4349  156.9914  225.9035  162.6540  226.1635  162.7239
  2.690  233.5285  164.2570  227.5056  163.0421  227.4914  162.9901  232.9105  166.6902  228.9602  172.4849  229.2377  172.5725
  2.700  236.9177  174.5563  230.6884  173.0070  230.6733  172.9479  236.1547  177.1567  231.7394  183.0651  232.0349  183.1735
  2.710  240.0230  185.6725  233.5974  183.7468  233.5821  183.6797  239.0887  188.4468  234.1586  194.4435  234.4721  194.5762
  2.720  242.7539  197.6623  236.1481  195.3145  236.1332  195.2383  241.6180  200.6152  236.1195  206.6660  236.4509  206.8271
  2.730  245.0017  210.5796  238.2389  207.7605  238.2255  207.6743  243.6294  213.7130  237.5064  219.7732  237.8550  219.9673
  2.740  246.6373  224.4723  239.7496  221.1305  239.7390  221.0332  244.9894  227.7844  238.1839  233.7968  238.5483  234.0288
  2.750  247.5089  239.3784  240.5387  235.4610  240.5326  235.3515  245.5413  242.8622  237.9956  248.7544  238.3735  249.0300
  2.760  247.4394  255.3206  240.4415  250.7747  240.4420  250.6522  245.1034  258.9624  236.7629  264.6446  237.1509  264.9696
  2.770  246.2257  272.2989  239.2689  267.0740  239.2786  266.9379  243.4687  276.0762  234.2854  281.4389  234.6788  281.8196
  2.780  243.6386  290.2820  236.8071  284.3336  236.8289  284.1836  240.4050  294.1620  230.3427  299.0743  230.7352  299.5169
  2.790  239.4250  309.1975  232.8194  302.4906  232.8569  302.3270  235.6582  313.1347  224.6988  317.4435  225.0822  317.9538
  2.800  233.3134  328.9198  227.0506  321.4341  227.1077  321.2580  228.9580  332.8540  217.1098  336.3849  217.4739  336.9682
  2.810  225.0231  349.2581  219.2349  340.9941  219.3160  340.8075  220.0290  353.1134  207.3350  355.6742  207.6674  356.3340
  2.820  214.2795  369.9451  209.1092  360.9297  209.2184  360.7359  208.6058  373.6291  195.1533  375.0161  195.4395  375.7542
  2.830  200.8341  390.6279  196.4306  380.9209  196.5720  380.7246  194.4543  394.0325  180.3835  394.0419  180.6074  394.8568
  2.840  184.4918  410.8649  181.0010  400.5637  181.1778  400.3711  177.3990  413.8693  162.9087  412.3114  163.0528  413.1982
  2.850  165.1419  430.1310  162.6952  419.3733  162.9094  419.1920  157.3534  432.6058  142.7021  429.3246  142.7490  430.2740
  2.860  142.7917  447.8351  141.4927  436.7970  141.7444  436.6359  134.3522  449.6491  119.8523  444.5431  119.7855  445.5408
  2.870  117.5970  463.3515  117.5073  452.2411  117.7942  452.1097  108.5789  464.3792   94.5826  457.4215   94.3881  458.4488
  2.880   89.8825  476.0655   91.0092  465.1106   91.3262  465.0180   80.3839  476.1949   67.2598  467.4492   66.9280  468.4831
  2.890   60.1462  485.4310   62.4337  474.8599   62.7729  474.8146   50.2854  484.5696   38.3890  474.1962   37.9155  475.2110
  2.900   29.0404  491.0307   32.3694  481.0506   32.7204  481.0586   18.9479  489.1089    8.5897  477.3595    7.9767  478.3282
  2.910   -2.6730  492.6309    1.5235  483.4038    1.8741  483.4687  -12.8616  489.6004  -21.4446  476.7999  -22.1886  477.6963
  2.920  -34.1884  490.2175  -29.3346  481.8408  -28.9977  481.9626  -44.3385  486.0462  -51.0017  472.5637  -51.8622  473.3644
  2.930  -64.7371  484.0035  -59.4452  476.4984  -59.1349  476.6738  -74.7155  478.6674  -79.4127  464.8835  -80.3702  465.5694
  2.940  -93.6688  474.4036  -88.1342  467.7157  -87.8629  467.9380 -103.3377  467.8790 -106.1123  454.1545 -107.1444  454.7116
  2.950 -120.5189  461.9743 -114.8821  455.9895 -114.6599  456.2488 -129.7227  454.2352 -130.6888  440.8887 -131.7716  441.3085
  2.960 -145.0484  447.3270 -139.3700  441.9021 -139.2047  442.1860 -153.5958  438.3526 -152.9143  425.6505 -154.0238  425.9295
  2.970 -167.2405  431.0235 -161.4932  426.0302 -161.3891  426.3240 -174.8887  420.8209 -172.7461  408.9810 -173.8594  409.1197
  2.980 -187.2416  413.4755 -181.3264  408.8498 -181.2836  409.1376 -193.6950  402.1198 -190.2924  391.3217 -191.3876  391.3238
  2.990 -205.2426  394.8860 -199.0364  390.6663 -199.0497  390.9321 -210.1804  382.5660 -205.7366  372.9618 -206.7925  372.8341
  3.000 -221.3306  375.2798 -214.7574  371.6107 -214.8157  371.8412 -224.4716  362.3272 -219.2337  354.0388 -220.2296  353.7916
  3.010 -235.3907  354.6426 -228.4861  351.7274 -228.5740  351.9146 -236.5773  341.5124 -230.8269  334.6120 -231.7433  334.2606
  3.020 -247.1426  333.1026 -240.0728  331.1184 -240.1743  331.2621 -246.4034  320.2963 -240.4400  314.7801 -241.2616  314.3453
  3.030 -256.3097  311.0246 -249.3271  310.0477 -249.4293  310.1540 -253.8585  298.9869 -247.9631  294.7644 -248.6814  294.2706
  3.040 -262.7949  288.9440 -256.1607  288.9256 -256.2565  289.0039 -258.9685  277.9852 -253.3657  274.8961 -253.9801  274.3679
  3.050 -266.7427  267.4071 -260.6625  268.2021 -260.7504  268.2613 -261.9160  257.6824 -256.7549  255.5317 -257.2716  254.9905
  3.060 -268.4800  246.8389 -263.0775  248.2560 -263.1598  248.3025 -262.9988  238.3742 -258.3576  236.9661 -258.7869  236.4283
  3.070 -268.4122  227.4948 -263.7343  229.3397 -263.8145  229.3767 -262.5593  220.2307 -258.4622  219.3905 -258.8160  218.8674
  3.080 -266.9378  209.4782 -262.9747  211.5793 -263.0563  211.6075 -260.9265  203.3114 -257.3628  202.8936 -257.6530  202.3924
  3.090 -264.4030  192.7842 -261.1092  195.0022 -261.1952  195.0206 -258.3855  187.5966 -255.3249  187.4850 -255.5624  187.0097
  3.100 -261.0871  177.3419 -258.3985  179.5704 -258.4909  179.5767 -255.1682  173.0179 -252.5709  173.1216 -252.7657  172.6739
  3.110 -257.2051  163.0457 -255.0501  165.2069 -255.1500  165.1979 -251.4552  159.4806 -249.2784  159.7294 -249.4392  159.3091
  3.120 -252.9162  149.7749 -251.2227  151.8143 -251.3300  151.7865 -247.3826  146.8783 -245.5838  147.2179 -245.7180  146.8237
  3.130 -248.3331  137.4056 -247.0320  139.2875 -247.1459  139.2366 -243.0490  135.1015 -241.5873  135.4901 -241.7010  135.1194
  3.140 -243.5301  125.8175 -242.5573  127.5204 -242.6757  127.4419 -238.5209  124.0424 -237.3583  124.4479 -237.4562  124.0969
  3.150 -238.5494  114.8970 -237.8463  116.4113 -237.9658  116.3002 -233.8375  113.5979 -232.9389  113.9954 -233.0239  113.6597
  3.160 -233.4044  104.5404 -232.9183  105.8659 -233.0340  105.7172 -229.0131  103.6712 -228.3464  104.0414 -228.4191  103.7164
  3.170 -228.0830   94.6554 -227.7673   95.8004 -227.8718   95.6089 -224.0383   94.1737 -223.5738   94.5012 -223.6323   94.1830
  3.180 -222.5475   85.1639 -222.3623   86.1446 -222.4458   85.9061 -218.8797   85.0272 -218.5895   85.2990 -218.6295   84.9856
  3.190 -216.7346   76.0065 -216.6484   76.8465 -216.6979   76.5582 -213.4781   76.1678 -213.3342   76.3724 -213.3501   76.0656
  3.200 -210.5541   67.1497 -210.5465   67.8790 -210.5453   67.5415 -207.7461   67.5526 -207.7177   67.6803 -207.7046   67.3866
  3.210 -203.8893   58.5974 -203.9543   59.2505 -203.8825   58.8695 -201.5654   59.1719 -201.6162   59.2172 -201.5736   58.9482
  3.220 -196.6011   50.4102 -196.7516   51.0209 -196.5873   50.6102 -194.7892   51.0689 -194.8746   51.0367 -194.8110   50.8063
  3.230 -188.5452   42.7298 -188.8159   43.3217 -188.5385   42.9065 -187.2546   43.3671 -187.3250   43.2834 -187.2607   43.1005
  3.240 -179.6100   35.8045 -180.0550   36.3771 -179.6514   35.9952 -178.8190   36.3018 -178.8321   36.2256 -178.7965   36.0831
  3.250 -169.7850   29.9953 -170.4648   30.5082 -169.9383   30.2082 -169.4293   30.2363 -169.3787   30.2623 -169.3959   30.1278
  3.260 -159.2503   25.7327 -160.2036   26.0980 -159.5820   25.9301 -159.2217   25.6283 -159.1717   25.8627 -159.2364   25.6832
  3.270 -148.4415   23.3953 -149.6504   23.4943 -148.9881   23.4943 -148.6067   22.9091 -148.7050   23.4097 -148.7646   23.1419
  3.280 -138.0170   23.1342 -139.3887   22.8619 -138.7552   23.0347 -138.2538   22.2897 -138.6847   22.9990 -138.6563   22.6520
  3.290 -128.6867   24.7411 -130.0765   24.0579 -129.5343   24.3722 -128.9156   23.5986 -129.8013   24.3328 -129.6261   23.9836
  3.300 -120.9742   27.6731 -122.2425   26.6233 -121.8274   27.0245 -121.1621   26.2927 -122.4823   26.8184 -122.1759   26.5716
  3.310 -115.0619   31.2366 -116.1250   29.9178 -115.8409   30.3488 -115.1985   29.6566 -116.7968   29.8032 -116.4472   29.7235
  3.320 -110.8019   34.8072 -111.6385   33.3186 -111.4672   33.7352 -110.8769   33.0506 -112.5435   32.7762 -112.2560   32.8490
  3.330 -107.8416   37.9678 -108.4644   36.3808 -108.3762   36.7557 -107.8431   36.0584 -109.4086   35.4382 -109.2444   35.5862
  3.340 -105.7740   40.5410 -106.2018   38.9037 -106.1639   39.2276 -105.7027   38.5045 -107.0891   37.6661 -107.0401   37.8027
  3.350 -104.2616   42.5445 -104.5160   40.8956 -104.5019   41.1763 -104.1334   40.3900 -105.3473   39.4429 -105.3581   39.5211
  3.360 -103.1070   44.0916 -103.2166   42.4583 -103.2157   42.7118 -102.9310   41.7999 -104.0161   40.7974 -104.0292   40.8222
  3.370 -102.2398   45.2805 -102.2312   43.6733 -102.2465   43.9095 -101.9940   42.8197 -102.9817   41.7681 -102.9697   41.7735
  3.380 -101.6391   46.1397 -101.5273   44.5611 -101.5641   44.7792 -101.2717   43.4957 -102.1623   42.3883 -102.1297   42.4065
  3.390 -101.2656   46.6501 -101.0569   45.1059 -101.1148   45.2996 -100.7169   43.8402 -101.4915   42.6844 -101.4585   42.7296
  3.400 -101.0457   46.7901 -100.7457   45.2928 -100.8188   45.4567 -100.2684   43.8586 -100.9094   42.6810 -100.8952   42.7497
  3.410 -100.8878   46.5643 -100.5077   45.1287 -100.5877   45.2614  -99.8562   43.5691 -100.3603   42.4059 -100.3750   42.4857
  3.420 -100.7055   46.0075 -100.2619   44.6461 -100.3413   44.7496  -99.4159   43.0079  -99.7950   41.8939  -99.8391   41.9714
  3.430 -100.4317   45.1762  -99.9443   43.8962 -100.0175   43.9746  -98.8978   42.2251  -99.1743   41.1859  -99.2422   41.2512
  3.440 -100.0235   44.1362  -99.5124   42.9388  -99.5759   42.9971  -98.2708   41.2759  -98.4709   40.3263  -98.5546   40.3744
  3.450  -99.4608   42.9525  -98.9438   41.8343  -98.9962   41.8771  -97.5210   40.2136  -97.6701   39.3590  -97.7620   39.3890
  3.460  -98.7411   41.6829  -98.2332   40.6373  -98.2742   40.6686  -96.6479   39.0853  -96.7676   38.3239  -96.8617   38.3374
  3.470  -97.8739   40.3749  -97.3865   39.3932  -97.4167   39.4161  -95.6603   37.9289  -95.7676   37.2553  -95.8597   37.2551
  3.480  -96.8755   39.0651  -96.4171   38.1379  -96.4374   38.1550  -94.5717   36.7739  -94.6791   36.1805  -94.7668   36.1698
  3.490  -95.7654   37.7799  -95.3416   36.8982  -95.3531   36.9111  -93.3979   35.6414  -93.5141   35.1203  -93.5963   35.1021
  3.500  -94.5633   36.5378  -94.1778   35.6930  -94.1814   35.7030  -92.1548   34.5460  -92.2857   34.0898  -92.3621   34.0665
  3.510  -93.2878   35.3506  -92.9427   34.5350  -92.9394   34.5429  -90.8573   33.4974  -91.0066   33.0994  -91.0774   33.0730
  3.520  -91.9556   34.2252  -91.6520   33.4321  -91.6425   33.4385  -89.5187   32.5011  -89.6886   32.1555  -89.7543   32.1277
  3.530  -90.5812   33.1653  -90.3193   32.3887  -90.3045   32.3941  -88.1505   31.5599  -88.3421   31.2622  -88.4033   31.2339
  3.540  -89.1770   32.1719  -88.9566   31.4067  -88.9370   31.4114  -86.7624   30.6748  -86.9763   30.4212  -87.0337   30.3933
  3.550  -87.7531   31.2444  -87.5738   30.4863  -87.5499   30.4903  -85.3625   29.8453  -85.5988   29.6329  -85.6531   29.6059
  3.560  -86.3180   30.3813  -86.1793   29.6264  -86.1514   29.6299  -83.9576   29.0701  -84.2162   28.8968  -84.2678   28.8711
  3.570  -84.8786   29.5804  -84.7799   28.8253  -84.7483   28.8284  -82.5529   28.3474  -82.8337   28.2117  -82.8832   28.1874
  3.580  -83.4405   28.8389  -83.3812   28.0806  -83.3462   28.0834  -81.1529   27.6752  -81.4558   27.5759  -81.5037   27.5533
  3.590  -82.0081   28.1542  -81.9877   27.3900  -81.9495   27.3925  -79.7611   27.0510  -80.0859   26.9876  -80.1325   26.9667
  3.600  -80.5851   27.5234  -80.6032   26.7507  -80.5619   26.7531  -78.3802   26.4725  -78.7270   26.4449  -78.7727   26.4256
  3.610  -79.1741   26.9438  -79.2305   26.1603  -79.1862   26.1625  -77.0124   25.9376  -77.3814   25.9458  -77.4264   25.9282
  3.620  -77.7776   26.4128  -77.8720   25.6162  -77.8248   25.6182  -75.6594   25.4439  -76.0508   25.4883  -76.0954   25.4723
  3.630  -76.3970   25.9279  -76.5295   25.1158  -76.4795   25.1177  -74.3223   24.9894  -74.7366   25.0706  -74.7811   25.0561
  3.640  -75.0338   25.4866  -75.2043   24.6569  -75.1515   24.6587  -73.0020   24.5720  -73.4400   24.6908  -73.4844   24.6777
  3.650  -73.6889   25.0870  -73.8975   24.2372  -73.8419   24.2389  -71.6992   24.1898  -72.1618   24.3473  -72.2062   24.3355
  3.660  -72.3629   24.7268  -72.6098   23.8546  -72.5514   23.8563  -70.4143   23.8411  -70.9024   24.0384  -70.9471   24.0278
  3.670  -71.0563   24.4045  -71.3417   23.5072  -71.2804   23.5090  -69.1473   23.5243  -69.6623   23.7627  -69.7072   23.7533
  3.680  -69.7694   24.1182  -70.0934   23.1931  -70.0294   23.1951  -67.8983   23.2379  -68.4416   23.5189  -68.4869   23.5104
  3.690  -68.5022   23.8665  -68.8651   22.9108  -68.7982   22.9130  -66.6671   22.9805  -67.2406   23.3057  -67.2862   23.2981
  3.700  -67.2547   23.6480  -67.6567   22.6586  -67.5869   22.6611  -65.4534   22.7510  -66.0591   23.1220  -66.1051   23.1151
  3.710  -66.0269   23.4617  -66.4680   22.4353  -66.3953   22.4381  -64.2569   22.5482  -64.8970   22.9668  -64.9435   22.9606
  3.720  -64.8184   23.3065  -65.2988   22.2395  -65.2231   22.2427  -63.0770   22.3711  -63.7542   22.8392  -63.8011   22.8336
  3.730  -63.6292   23.1815  -64.1486   22.0701  -64.0700   22.0739  -61.9133   22.2190  -62.6305   22.7386  -62.6777   22.7334
  3.740  -62.4590   23.0860  -63.0171   21.9262  -62.9354   21.9306  -60.7651   22.0911  -61.5256   22.6643  -61.5731   22.6594
  3.750  -61.3074   23.0195  -61.9037   21.8068  -61.8189   21.8120  -59.6318   21.9869  -60.4392   22.6157  -60.4869   22.6111
  3.760  -60.1741   22.9815  -60.8080   21.7114  -60.7200   21.7174  -58.5127   21.9060  -59.3712   22.5925  -59.4190   22.5881
  3.770  -59.0590   22.9717  -59.7292   21.6392  -59.6380   21.6462  -57.4070   21.8480  -58.3211   22.5944  -58.3689   22.5901
  3.780  -57.9618   22.9899  -58.6668   21.5898  -58.5723   21.5979  -56.3140   21.8127  -57.2888   22.6212  -57.3365   22.6169
  3.790  -56.8824   23.0360  -57.6202   21.5629  -57.5222   21.5723  -55.2330   21.8002  -56.2741   22.6728  -56.3214   22.6686
  3.800  -55.8205   23.1102  -56.5886   21.5583  -56.4872   21.5691  -54.1632   21.8105  -55.2768   22.7493  -55.3236   22.7451
  3.810  -54.7762   23.2125  -55.5715   21.5760  -55.4666   21.5884  -53.1038   21.8439  -54.2968   22.8508  -54.3429   22.8467
  3.820  -53.7496   23.3431  -54.5683   21.6159  -54.4596   21.6301  -52.0541   21.9008  -53.3341   22.9774  -53.3793   22.9734
  3.830  -52.7407   23.5024  -53.5782   21.6785  -53.4658   21.6945  -51.0134   21.9817  -52.3886   23.1294  -52.4328   23.1257
  3.840  -51.7498   23.6907  -52.6006   21.7639  -52.4845   21.7821  -49.9809   22.0874  -51.4605   23.3072  -51.5035   23.3040
  3.850  -50.7774   23.9084  -51.6351   21.8728  -51.5151   21.8934  -48.9560   22.2187  -50.5499   23.5112  -50.5915   23.5086
  3.860  -49.8238   24.1560  -50.6812   22.0059  -50.5571   22.0291  -47.9381   22.3766  -49.6572   23.7419  -49.6974   23.7401
  3.870  -48.8896   24.4337  -49.7383   22.1639  -49.6100   22.1901  -46.9267   22.5625  -48.7827   23.9997  -48.8213   23.9991
  3.880  -47.9755   24.7419  -48.8060   22.3481  -48.6736   22.3775  -45.9212   22.7777  -47.9269   24.2853  -47.9639   24.2860
  3.890  -47.0821   25.0811  -47.8843   22.5596  -47.7475   22.5926  -44.9214   23.0239  -47.0902   24.5992  -47.1257   24.6016
  3.900  -46.2103   25.4516  -46.9728   22.7999  -46.8316   22.8368  -43.9269   23.3029  -46.2732   24.9421  -46.3073   24.9463
  3.910  -45.3607   25.8536  -46.0717   23.0707  -45.9260   23.1119  -42.9378   23.6169  -45.4767   25.3147  -45.5096   25.3210
  3.920  -44.5341   26.2874  -45.1811   23.3738  -45.0308   23.4199  -41.9539   23.9681  -44.7014   25.7179  -44.7332   25.7263
  3.930  -43.7309   26.7535  -44.3014   23.7114  -44.1465   23.7628  -40.9756   24.3593  -43.9480   26.1526  -43.9789   26.1631
  3.940  -42.9518   27.2522  -43.4335   24.0859  -43.2738   24.1431  -40.0035   24.7933  -43.2175   26.6198  -43.2477   26.6323
  3.950  -42.1971   27.7845  -42.5783   24.4999  -42.4139   24.5636  -39.0382   25.2733  -42.5109   27.1210  -42.5404   27.1351
  3.960  -41.4670   28.3513  -41.7373   24.9563  -41.5682   25.0272  -38.0810   25.8029  -41.8295   27.6577  -41.8581   27.6732
  3.970  -40.7620   28.9544  -40.9124   25.4582  -40.7387   25.5371  -37.1334   26.3860  -41.1747   28.2317  -41.2021   28.2482
  3.980  -40.0824   29.5959  -40.1063   26.0089  -39.9280   26.0968  -36.1976   27.0267  -40.5486   28.8453  -40.5739   28.8627
  3.990  -39.4292   30.2789  -39.3221   26.6120  -39.1396   26.7098  -35.2761   27.7297  -39.9536   29.5011  -39.9759   29.5193
  4.000  -38.8037   31.0072  -38.5639   27.2712  -38.3774   27.3798  -34.3725   28.4999  -39.3929   30.2021  -39.4110   30.2215
  4.010  -38.2086   31.7854  -37.8366   27.9900  -37.6467   28.1107  -33.4910   29.3427  -38.8707   30.9514  -38.8833   30.9728
  4.020  -37.6475   32.6189  -37.1464   28.7720  -36.9537   28.9060  -32.6370   30.2634  -38.3926   31.7524  -38.3984   31.7773
  4.030  -37.1261   33.5133  -36.5004   29.6204  -36.3059   29.7691  -31.8171   31.2680  -37.9653   32.6081  -37.9633   32.6386
  4.040  -36.6519   34.4745  -35.9074   30.5380  -35.7121   30.7027  -31.0393   32.3622  -37.5974   33.5214  -37.5872   33.5600
  4.050  -36.2351   35.5080  -35.3773   31.5267  -35.1828   31.7088  -30.3134   33.5518  -37.2993   34.4940  -37.2812   34.5439
  4.060  -35.8881   36.6181  -34.9216   32.5872  -34.7297   32.7880  -29.6510   34.8423  -37.0835   35.5264  -37.0586   35.5907
  4.070  -35.6264   37.8077  -34.5534   33.7185  -34.3664   33.9394  -29.0659   36.2385  -36.9640   36.6169  -36.9347   36.6986
  4.080  -35.4676   39.0769  -34.2869   34.9177  -34.1075   35.1596  -28.5747   37.7441  -36.9570   37.7608  -36.9265   37.8626
  4.090  -35.4319   40.4226  -34.1376   36.1792  -33.9688   36.4428  -28.1963   39.3611  -37.0796   38.9501  -37.0521   39.0737
  4.100  -35.5414   41.8372  -34.1214   37.4941  -33.9670   37.7797  -27.9528   41.0890  -37.3494   40.1720  -37.3296   40.3180
  4.110  -35.8190   43.3082  -34.2543   38.8502  -34.1183   39.1573  -27.8690   42.9242  -37.7836   41.4089  -37.7765   41.5765
  4.120  -36.2875   44.8169  -34.5517   40.2309  -34.4383   40.5583  -27.9723   44.8582  -38.3972   42.6373  -38.4074   42.8245
  4.130  -36.9678   46.3378  -35.0270   41.6157  -34.9407   41.9612  -28.2925   46.8769  -39.2013   43.8285  -39.2329   44.0319
  4.140  -37.8777   47.8390  -35.6909   42.9798  -35.6359   43.3404  -28.8603   48.9588  -40.2015   44.9487  -40.2575   45.1640
  4.150  -39.0289   49.2819  -36.5499   44.2950  -36.5302   44.6661  -29.7059   51.0742  -41.3954   45.9605  -41.4775   46.1828
  4.160  -40.4255   50.6227  -37.6054   45.5298  -37.6241   45.9060  -30.8569   53.1834  -42.7718   46.8249  -42.8804   47.0493
  4.170  -42.0615   51.8139  -38.8524   46.6508  -38.9117   47.0257  -32.3351   55.2368  -44.3089   47.5044  -44.4431   47.7262
  4.180  -43.9198   52.8071  -40.2792   47.6241  -40.3797   47.9907  -34.1531   57.1750  -45.9753   47.9658  -46.1333   48.1810
  4.190  -45.9710   53.5566  -41.8665   48.4171  -42.0074   48.7678  -36.3101   58.9309  -47.7308   48.1837  -47.9100   48.3891
  4.200  -48.1742   54.0221  -43.5876   49.0000  -43.7661   49.3275  -38.7889   60.4325  -49.5293   48.1429  -49.7268   48.3359
  4.210  -50.4781   54.1730  -45.4086   49.3481  -45.6203   49.6458  -41.5529   61.6089  -51.3217   47.8398  -51.5346   48.0190
  4.220  -52.8245   53.9909  -47.2900   49.4436  -47.5290   49.7060  -44.5455   62.3956  -53.0603   47.2833  -53.2853   47.4477
  4.230  -55.1513   53.4715  -49.1880   49.2775  -49.4473   49.5008  -47.6918   62.7421  -54.7015   46.4928  -54.9360   46.6423
  4.240  -57.3969   52.6254  -51.0572   48.8508  -51.3292   49.0327  -50.9033   62.6177  -56.2094   45.4968  -56.4507   45.6314
  4.250  -59.5044   51.4771  -52.8532   48.1744  -53.1301   48.3148  -54.0845   62.0157  -57.5571   44.3295  -57.8027   44.4498
  4.260  -61.4254   50.0632  -54.5355   47.2692  -54.8102   47.3696  -57.1416   60.9547  -58.7270   43.0277  -58.9751   43.1346
  4.270  -63.1228   48.4291  -56.0702   46.1641  -56.3364   46.2275  -59.9901   59.4767  -59.7111   41.6284  -59.9598   41.7232
  4.280  -64.5718   46.6250  -57.4319   44.8938  -57.6846   44.9241  -62.5613   57.6419  -60.5091   40.1664  -60.7571   40.2504
  4.290  -65.7607   44.7025  -58.6044   43.4960  -58.8397   43.4977  -64.8067   55.5227  -61.1272   38.6727  -61.3735   38.7473
  4.300  -66.6893   42.7106  -59.5805   42.0082  -59.7961   41.9862  -66.6990   53.1957  -61.5761   37.1737  -61.8200   37.2403
  4.310  -67.3670   40.6939  -60.3615   40.4663  -60.5559   40.4253  -68.2305   50.7360  -61.8697   35.6909  -62.1109   35.7510
  4.320  -67.8108   38.6900  -60.9549   38.9020  -61.1279   38.8462  -69.4100   48.2121  -62.0234   34.2412  -62.2619   34.2962
  4.330  -68.0423   36.7296  -61.3734   37.3422  -61.5253   37.2755  -70.2589   45.6825  -62.0534   32.8373  -62.2891   32.8881
  4.340  -68.0859   34.8360  -61.6326   35.8086  -61.7644   35.7343  -70.8068   43.1946  -61.9753   31.4878  -62.2086   31.5356
  4.350  -67.9665   33.0257  -61.7496   34.3178  -61.8627   34.2386  -71.0880   40.7844  -61.8040   30.1987  -62.0353   30.2442
  4.360  -67.7087   31.3097  -61.7422   32.8818  -61.8379   32.7999  -71.1380   38.4780  -61.5535   28.9732  -61.7831   29.0172
  4.370  -67.3351   29.6938  -61.6273   31.5087  -61.7072   31.4257  -70.9917   36.2921  -61.2360   27.8126  -61.4645   27.8556
  4.380  -66.8667   28.1805  -61.4210   30.2034  -61.4866   30.1204  -70.6818   34.2364  -60.8627   26.7168  -61.0906   26.7592
  4.390  -66.3218   26.7689  -61.1377   28.9680  -61.1905   28.8861  -70.2378   32.3149  -60.4434   25.6845  -60.6711   25.7266
  4.400  -65.7164   25.4566  -60.7905   27.8029  -60.8317   27.7226  -69.6859   30.5272  -59.9865   24.7137  -60.2144   24.7559
  4.410  -65.0642   24.2394  -60.3907   26.7070  -60.4216   26.6288  -69.0487   28.8701  -59.4992   23.8021  -59.7278   23.8444
  4.420  -64.3767   23.1124  -59.9481   25.6783  -59.9699   25.6022  -68.3453   27.3382  -58.9879   22.9467  -59.2175   22.9893
  4.430  -63.6636   22.0701  -59.4712   24.7138  -59.4847   24.6401  -67.5920   25.9247  -58.4577   22.1445  -58.6888   22.1876
  4.440  -62.9329   21.1070  -58.9673   23.8106  -58.9733   23.7391  -66.8023   24.6223  -57.9133   21.3926  -58.1462   21.4361
  4.450  -62.1911   20.2174  -58.4422   22.9651  -58.4415   22.8959  -65.9873   23.4234  -57.3584   20.6880  -57.5933   20.7319
  4.460  -61.4435   19.3958  -57.9012   22.1741  -57.8944   22.1069  -65.1558   22.3201  -56.7961   20.0276  -57.0334   20.0721
  4.470  -60.6945   18.6370  -57.3485   21.4340  -57.3360   21.3688  -64.3153   21.3051  -56.2291   19.4087  -56.4690   19.4537
  4.480  -59.9475   17.9361  -56.7876   20.7415  -56.7698   20.6781  -63.4717   20.3713  -55.6596   18.8287  -55.9024   18.8741
  4.490  -59.2052   17.2883  -56.2215   20.0935  -56.1988   20.0316  -62.6295   19.5120  -55.0895   18.2849  -55.3354   18.3308
  4.500  -58.4697   16.6895  -55.6525   19.4869  -55.6252   19.4265  -61.7924   18.7209  -54.5203   17.7751  -54.7695   17.8213
  4.510  -57.7426   16.1357  -55.0828   18.9190  -55.0511   18.8598  -60.9633   17.9923  -53.9532   17.2969  -54.2060   17.3436
  4.520  -57.0253   15.6233  -54.5138   18.3872  -54.4778   18.3290  -60.1444   17.3210  -53.3892   16.8483  -53.6457   16.8954
  4.530  -56.3186   15.1489  -53.9470   17.8889  -53.9069   17.8316  -59.3373   16.7021  -52.8291   16.4275  -53.0897   16.4750
  4.540  -55.6232   14.7096  -53.3834   17.4219  -53.3393   17.3653  -58.5432   16.1312  -52.2736   16.0327  -52.5384   16.0805
  4.550  -54.9395   14.3027  -52.8239   16.9841  -52.7758   16.9281  -57.7629   15.6043  -51.7233   15.6621  -51.9924   15.7102
  4.560  -54.2678   13.9256  -52.2692   16.5736  -52.2171   16.5180  -56.9971   15.1178  -51.1784   15.3144  -51.4522   15.3628
  4.570  -53.6083   13.5761  -51.7198   16.1886  -51.6638   16.1333  -56.2460   14.6685  -50.6395   14.9881  -50.9181   15.0368
  4.580  -52.9609   13.2521  -51.1762   15.8275  -51.1162   15.7724  -55.5098   14.2533  -50.1066   14.6819  -50.3903   14.7308
  4.590  -52.3257   12.9517  -50.6386   15.4888  -50.5746   15.4339  -54.7885   13.8696  -49.5799   14.3948  -49.8689   14.4439
  4.600  -51.7024   12.6734  -50.1074   15.1711  -50.0393   15.1162  -54.0821   13.5149  -49.0597   14.1255  -49.3542   14.1748
  4.610  -51.0911   12.4155  -49.5827   14.8732  -49.5104   14.8183  -53.3903   13.1871  -48.5458   13.8732  -48.8461   13.9225
  4.620  -50.4913   12.1766  -49.0645   14.5940  -48.9880   14.5388  -52.7129   12.8842  -48.0385   13.6368  -48.3448   13.6863
  4.630  -49.9029   11.9556  -48.5531   14.3322  -48.4722   14.2769  -52.0497   12.6043  -47.5376   13.4156  -47.8501   13.4651
  4.640  -49.3256   11.7512  -48.0483   14.0871  -47.9630   14.0316  -51.4002   12.3459  -47.0431   13.2088  -47.3622   13.2583
  4.650  -48.7592   11.5624  -47.5503   13.8577  -47.4604   13.8018  -50.7641   12.1076  -46.5551   13.0157  -46.8810   13.0651
  4.660  -48.2034   11.3883  -47.0589   13.6431  -46.9643   13.5870  -50.1411   11.8879  -46.0734   12.8356  -46.4064   12.8849
  4.670  -47.6578   11.2280  -46.5742   13.4427  -46.4747   13.3862  -49.5307   11.6856  -45.5979   12.6679  -45.9384   12.7170
  4.680  -47.1223   11.0808  -46.0960   13.2558  -45.9915   13.1989  -48.9327   11.4998  -45.1287   12.5122  -45.4769   12.5610
  4.690  -46.5964   10.9460  -45.6244   13.0817  -45.5147   13.0244  -48.3465   11.3294  -44.6655   12.3679  -45.0218   12.4164
  4.700  -46.0800   10.8228  -45.1592   12.9198  -45.0441   12.8622  -47.7719   11.1735  -44.2083   12.2345  -44.5731   12.2825
  4.710  -45.5728   10.7108  -44.7004   12.7696  -44.5797   12.7116  -47.2085   11.0314  -43.7571   12.1116  -44.1306   12.1591
  4.720  -45.0744   10.6094  -44.2478   12.6307  -44.1213   12.5724  -46.6558   10.9023  -43.3116   11.9989  -43.6944   12.0458
  4.730  -44.5847   10.5182  -43.8014   12.5026  -43.6689   12.4439  -46.1136   10.7854  -42.8718   11.8961  -43.2642   11.9421
  4.740  -44.1035   10.4366  -43.3610   12.3849  -43.2223   12.3259  -45.5815   10.6804  -42.4376   11.8027  -42.8401   11.8478
  4.750  -43.6303   10.3643  -42.9266   12.2771  -42.7814   12.2179  -45.0592   10.5865  -42.0089   11.7185  -42.4219   11.7625
  4.760  -43.1652   10.3009  -42.4981   12.1791  -42.3461   12.1196  -44.5463   10.5034  -41.5856   11.6433  -42.0096   11.6861
  4.770  -42.7077   10.2462  -42.0754   12.0904  -41.9164   12.0308  -44.0427   10.4306  -41.1676   11.5768  -41.6031   11.6181
  4.780  -42.2578   10.1998  -41.6584   12.0108  -41.4921   11.9511  -43.5479   10.3676  -40.7549   11.5189  -41.2024   11.5585
  4.790  -41.8152   10.1615  -41.2471   11.9401  -41.0731   11.8804  -43.0618   10.3142  -40.3472   11.4692  -40.8073   11.5069
  4.800  -41.3797   10.1310  -40.8412   11.8779  -40.6593   11.8183  -42.5840   10.2701  -39.9446   11.4278  -40.4179   11.4633
  4.810  -40.9512   10.1081  -40.4409   11.8241  -40.2506   11.7647  -42.1143   10.2349  -39.5470   11.3944  -40.0341   11.4273
  4.820  -40.5295   10.0926  -40.0459   11.7785  -39.8470   11.7195  -41.6526   10.2083  -39.1543   11.3688  -39.6558   11.3990
  4.830  -40.1145   10.0844  -39.6563   11.7409  -39.4483   11.6824  -41.1985   10.1903  -38.7664   11.3511  -39.2831   11.3780
  4.840  -39.7060   10.0832  -39.2719   11.7112  -39.0544   11.6533  -40.7519   10.1805  -38.3833   11.3411  -38.9159   11.3643
  4.850  -39.3039   10.0890  -38.8928   11.6892  -38.6654   11.6321  -40.3125   10.1789  -38.0049   11.3387  -38.5542   11.3578
  4.860  -38.9080   10.1016  -38.5188   11.6747  -38.2811   11.6187  -39.8803   10.1852  -37.6312   11.3439  -38.1979   11.3584
  4.870  -38.5182   10.1209  -38.1500   11.6678  -37.9014   11.6130  -39.4551   10.1993  -37.2621   11.3566  -37.8472   11.3659
  4.880  -38.1345   10.1468  -37.7862   11.6682  -37.5262   11.6150  -39.0366   10.2212  -36.8977   11.3769  -37.5019   11.3802
  4.890  -37.7567   10.1792  -37.4275   11.6759  -37.1556   11.6246  -38.6248   10.2507  -36.5378   11.4046  -37.1622   11.4014
  4.900  -37.3846   10.2182  -37.0739   11.6908  -36.7895   11.6417  -38.2195   10.2878  -36.1824   11.4399  -36.8281   11.4292
  4.910  -37.0184   10.2635  -36.7252   11.7129  -36.4277   11.6664  -37.8206   10.3325  -35.8316   11.4827  -36.4995   11.4636
  4.920  -36.6577   10.3152  -36.3814   11.7422  -36.0702   11.6986  -37.4280   10.3847  -35.4853   11.5330  -36.1765   11.5046
  4.930  -36.3026   10.3733  -36.0427   11.7784  -35.7171   11.7384  -37.0416   10.4444  -35.1435   11.5910  -35.8592   11.5520
  4.940  -35.9529   10.4377  -35.7089   11.8218  -35.3682   11.7858  -36.6613   10.5117  -34.8062   11.6567  -35.5476   11.6058
  4.950  -35.6086   10.5084  -35.3800   11.8722  -35.0234   11.8409  -36.2870   10.5865  -34.4735   11.7301  -35.2418   11.6660
  4.960  -35.2696   10.5854  -35.0560   11.9297  -34.6828   11.9038  -35.9187   10.6690  -34.1453   11.8115  -34.9419   11.7324
  4.970  -34.9358   10.6689  -34.7369   11.9942  -34.3464   11.9745  -35.5563   10.7592  -33.8218   11.9009  -34.6478   11.8051
  4.980  -34.6071   10.7589  -34.4227   12.0659  -34.0140   12.0532  -35.1998   10.8573  -33.5029   11.9985  -34.3598   11.8839
  4.990  -34.2835   10.8554  -34.1135   12.1449  -33.6856   12.1402  -34.8490   10.9634  -33.1887   12.1046  -34.0778   11.9688
  5.000  -33.9648   10.9586  -33.8091   12.2311  -33.3613   12.2356  -34.5041   11.0776  -32.8793   12.2192  -33.8020   12.0598
  5.010  -33.6510   11.0686  -33.5097   12.3247  -33.0411   12.3396  -34.1650   11.2003  -32.5749   12.3428  -33.5324   12.1567
  5.020  -33.3420   11.1857  -33.2152   12.4260  -32.7249   12.4526  -33.8317   11.3316  -32.2755   12.4756  -33.2691   12.2596
  5.030  -33.0378   11.3101  -32.9257   12.5350  -32.4128   12.5749  -33.5043   11.4719  -31.9813   12.6178  -33.0122   12.3684
  5.040  -32.7382   11.4422  -32.6412   12.6521  -32.1048   12.7070  -33.1829   11.6215  -31.6926   12.7700  -32.7618   12.4831
  5.050  -32.4434   11.5823  -32.3619   12.7775  -31.8012   12.8493  -32.8676   11.7808  -31.4095   12.9326  -32.5179   12.6036
  5.060  -32.1532   11.7309  -32.0879   12.9115  -31.5021   13.0023  -32.5586   11.9504  -31.1326   13.1060  -32.2807   12.7300
  5.070  -31.8679   11.8885  -31.8193   13.0546  -31.2076   13.1667  -32.2563   12.1307  -30.8621   13.2907  -32.0502   12.8623
  5.080  -31.5876   12.0558  -31.5564   13.2073  -30.9182   13.3431  -31.9609   12.3224  -30.5987   13.4875  -31.8265   13.0004
  5.090  -31.3125   12.2335  -31.2995   13.3699  -30.6343   13.5324  -31.6731   12.5261  -30.3430   13.6968  -31.6097   13.1445
  5.100  -31.0430   12.4223  -31.0491   13.5433  -30.3565   13.7353  -31.3934   12.7426  -30.0958   13.9193  -31.4000   13.2947
  5.110  -30.7797   12.6233  -30.8058   13.7278  -30.0855   13.9527  -31.1228   12.9726  -29.8581   14.1557  -31.1975   13.4511
  5.120  -30.5235   12.8374  -30.5703   13.9243  -29.8222   14.1856  -30.8621   13.2168  -29.6312   14.4066  -31.0023   13.6139
  5.130  -30.2754   13.0655  -30.3436   14.1334  -29.5679   14.4349  -30.6129   13.4761  -29.4164   14.6726  -30.8148   13.7833
  5.140  -30.0367   13.3086  -30.1269   14.3556  -29.3240   14.7015  -30.3766   13.7511  -29.2156   14.9542  -30.6351   13.9595
  5.150  -29.8091   13.5676  -29.9216   14.5915  -29.0922   14.9863  -30.1552   14.0424  -29.0305   15.2517  -30.4638   14.1429
  5.160  -29.5947   13.8433  -29.7294   14.8416  -28.8746   15.2901  -29.9509   14.3502  -28.8636   15.5651  -30.3012   14.3337
  5.170  -29.3960   14.1359  -29.5522   15.1059  -28.6736   15.6133  -29.7663   14.6747  -28.7172   15.8943  -30.1481   14.5323
  5.180  -29.2156   14.4456  -29.3922   15.3843  -28.4919   15.9563  -29.6042   15.0152  -28.5941   16.2384  -30.0051   14.7390
  5.190  -29.0568   14.7718  -29.2519   15.6762  -28.3327   16.3190  -29.4675   15.3710  -28.4970   16.5965  -29.8732   14.9540
  5.200  -28.9225   15.1134  -29.1335   15.9806  -28.1991   16.7007  -29.3594   15.7403  -28.4289   16.9667  -29.7535   15.1775
  5.210  -28.8160   15.4686  -29.0396   16.2960  -28.0947   17.1002  -29.2830   16.1209  -28.3925   17.3467  -29.6473   15.4097
  5.220  -28.7403   15.8347  -28.9723   16.6203  -28.0232   17.5157  -29.2409   16.5097  -28.3904   17.7336  -29.5559   15.6502
  5.230  -28.6979   16.2085  -28.9337   16.9509  -27.9881   17.9445  -29.2356   16.9030  -28.4246   18.1239  -29.4810   15.8987
  5.240  -28.6907   16.5860  -28.9253   17.2848  -27.9927   18.3834  -29.2686   17.2967  -28.4967   18.5134  -29.4243   16.1546
  5.250  -28.7200   16.9628  -28.9480   17.6188  -28.0400   18.8282  -29.3409   17.6858  -28.6077   18.8977  -29.3873   16.4168
  5.260  -28.7859   17.3345  -29.0021   17.9493  -28.1321   19.2740  -29.4525   18.0657  -28.7576   19.2721  -29.3719   16.6839
  5.270  -28.8880   17.6965  -29.0876   18.2728  -28.2708   19.7155  -29.6024   18.4314  -28.9458   19.6318  -29.3794   16.9543
  5.280  -29.0247   18.0445  -29.2036   18.5861  -28.4565   20.1469  -29.7887   18.7782  -29.1705   19.9723  -29.4112   17.2259
  5.290  -29.1938   18.3748  -29.3488   18.8859  -28.6889   20.5622  -30.0090   19.1021  -29.4296   20.2893  -29.4685   17.4963
  5.300  -29.3929   18.6841  -29.5214   19.1695  -28.9667   20.9554  -30.2598   19.3995  -29.7200   20.5790  -29.5517   17.7628
  5.310  -29.6187   18.9699  -29.7195   19.4346  -29.2872   21.3207  -30.5378   19.6676  -30.0383   20.8382  -29.6613   18.0228
  5.320  -29.8682   19.2301  -29.9410   19.6790  -29.6471   21.6529  -30.8388   19.9042  -30.3805   21.0645  -29.7971   18.2732
  5.330  -30.1382   19.4634  -30.1835   19.9012  -30.0423   21.9475  -31.1590   20.1079  -30.7427   21.2559  -29.9583   18.5112
  5.340  -30.4257   19.6689  -30.4446   20.0997  -30.4677   22.2004  -31.4945   20.2778  -31.1208   21.4113  -30.1441   18.7340
  5.350  -30.7276   19.8462  -30.7221   20.2736  -30.9180   22.4089  -31.8416   20.4139  -31.5106   21.5301  -30.3529   18.9390
  5.360  -31.0413   19.9951  -31.0136   20.4221  -31.3876   22.5709  -32.1967   20.5163  -31.9083   21.6124  -30.5828   19.1237
  5.370  -31.3644   20.1157  -31.3169   20.5446  -31.8709   22.6853  -32.5567   20.5855  -32.3103   21.6585  -30.8317   19.2861
  5.380  -31.6945   20.2082  -31.6297   20.6407  -32.3621   22.7518  -32.9187   20.6226  -32.7131   21.6693  -31.0971   19.4245
  5.390  -32.0295   20.2729  -31.9499   20.7103  -32.8559   22.7710  -33.2800   20.6285  -33.1135   21.6459  -31.3766   19.5374
  5.400  -32.3675   20.3104  -32.2753   20.7534  -33.3473   22.7441  -33.6384   20.6045  -33.5089   21.5897  -31.6674   19.6239
  5.410  -32.7065   20.3211  -32.6039   20.7701  -33.8315   22.6730  -33.9917   20.5519  -33.8967   21.5024  -31.9668   19.6833
  5.420  -33.0448   20.3057  -32.9337   20.7606  -34.3044   22.5601  -34.3382   20.4722  -34.2747   21.3856  -32.2720   19.7154
  5.430  -33.3809   20.2646  -33.2627   20.7255  -34.7625   22.4079  -34.6762   20.3667  -34.6410   21.2411  -32.5804   19.7202
  5.440  -33.7129   20.1987  -33.5892   20.6653  -35.2025   22.2196  -35.0042   20.2369  -34.9939   21.0710  -32.8894   19.6980
  5.450  -34.0395   20.1088  -33.9113   20.5807  -35.6220   21.9983  -35.3210   20.0842  -35.3319   20.8770  -33.1966   19.6496
  5.460  -34.3591   19.9956  -34.2273   20.4725  -36.0188   21.7472  -35.6255   19.9103  -35.6539   20.6611  -33.4998   19.5757
  5.470  -34.6703   19.8601  -34.5357   20.3417  -36.3913   21.4697  -35.9165   19.7164  -35.9589   20.4254  -33.7969   19.4776
  5.480  -34.9718   19.7033  -34.8350   20.1894  -36.7384   21.1690  -36.1934   19.5041  -36.2461   20.1715  -34.0861   19.3564
  5.490  -35.2624   19.5263  -35.1239   20.0166  -37.0593   20.8482  -36.4553   19.2750  -36.5150   19.9016  -34.3658   19.2135
  5.500  -35.5409   19.3304  -35.4011   19.8248  -37.3537   20.5105  -36.7016   19.0303  -36.7650   19.6173  -34.6345   19.0505
  5.510  -35.8063   19.1167  -35.6657   19.6151  -37.6214   20.1587  -36.9318   18.7717  -36.9959   19.3204  -34.8911   18.8688
  5.520  -36.0576   18.8865  -35.9166   19.3889  -37.8627   19.7955  -37.1455   18.5006  -37.2077   19.0128  -35.1344   18.6700
  5.530  -36.2941   18.6413  -36.1531   19.1477  -38.0781   19.4234  -37.3423   18.2184  -37.4002   18.6959  -35.3639   18.4558
  5.540  -36.5151   18.3825  -36.3745   18.8928  -38.2681   19.0448  -37.5222   17.9265  -37.5736   18.3714  -35.5787   18.2277
  5.550  -36.7200   18.1114  -36.5804   18.6257  -38.4336   18.6617  -37.6849   17.6262  -37.7281   18.0408  -35.7786   17.9873
  5.560  -36.9085   17.8295  -36.7702   18.3478  -38.5755   18.2761  -37.8306   17.3190  -37.8641   17.7055  -35.9631   17.7360
  5.570  -37.0803   17.5381  -36.9440   18.0605  -38.6948   17.8895  -37.9593   17.0062  -37.9819   17.3667  -36.1322   17.4753
  5.580  -37.2353   17.2388  -37.1013   17.7651  -38.7926   17.5035  -38.0712   16.6888  -38.0820   17.0257  -36.2858   17.2067
  5.590  -37.3734   16.9329  -37.2424   17.4631  -38.8700   17.1194  -38.1666   16.3682  -38.1649   16.6836  -36.4240   16.9313
  5.600  -37.4948   16.6217  -37.3673   17.1556  -38.9282   16.7382  -38.2459   16.0455  -38.2313   16.3416  -36.5469   16.6504
  5.610  -37.5995   16.3064  -37.4761   16.8439  -38.9682   16.3611  -38.3095   15.7216  -38.2818   16.0004  -36.6548   16.3653
  5.620  -37.6880   15.9882  -37.5692   16.5291  -38.9912   15.9887  -38.3578   15.3977  -38.3169   15.6611  -36.7481   16.0769
  5.630  -37.7605   15.6684  -37.6468   16.2123  -38.9983   15.6218  -38.3914   15.0745  -38.3375   15.3243  -36.8271   15.7862
  5.640  -37.8176   15.3478  -37.7095   15.8945  -38.9905   15.2609  -38.4108   14.7529  -38.3442   14.9908  -36.8921   15.4941
  5.650  -37.8597   15.0276  -37.7576   15.5765  -38.9690   14.9065  -38.4166   14.4336  -38.3376   14.6611  -36.9438   15.2016
  5.660  -37.8873   14.7085  -37.7917   15.2594  -38.9346   14.5590  -38.4096   14.1174  -38.3187   14.3359  -36.9824   14.9092
  5.670  -37.9011   14.3915  -37.8123   14.9438  -38.8882   14.2186  -38.3902   13.8048  -38.2879   14.0156  -37.0086   14.6178
  5.680  -37.9018   14.0771  -37.8199   14.6304  -38.8309   13.8856  -38.3592   13.4965  -38.2461   13.7006  -37.0229   14.3280
  5.690  -37.8898   13.7662  -37.8153   14.3198  -38.7634   13.5602  -38.3172   13.1927  -38.1939   13.3913  -37.0257   14.0403
  5.700  -37.8659   13.4591  -37.7988   14.0127  -38.6864   13.2423  -38.2648   12.8940  -38.1320   13.0879  -37.0177   13.7552
  5.710  -37.8308   13.1565  -37.7713   13.7096  -38.6009   12.9322  -38.2028   12.6006  -38.0610   12.7906  -36.9993   13.4731
  5.720  -37.7851   12.8588  -37.7332   13.4107  -38.5073   12.6297  -38.1317   12.3130  -37.9817   12.4997  -36.9710   13.1946
  5.730  -37.7295   12.5663  -37.6853   13.1167  -38.4065   12.3350  -38.0522   12.0312  -37.8945   12.2153  -36.9335   12.9199
  5.740  -37.6646   12.2794  -37.6279   12.8277  -38.2990   12.0479  -37.9648   11.7555  -37.8001   11.9374  -36.8871   12.6493
  5.750  -37.5910   11.9982  -37.5619   12.5440  -38.1853   11.7684  -37.8702   11.4860  -37.6991   11.6662  -36.8325   12.3831
  5.760  -37.5094   11.7230  -37.4877   12.2658  -38.0661   11.4965  -37.7689   11.2228  -37.5920   11.4017  -36.7701   12.1215
  5.770  -37.4204   11.4540  -37.4059   11.9934  -37.9418   11.2319  -37.6614   10.9660  -37.4792   11.1439  -36.7005   11.8648
  5.780  -37.3245   11.1912  -37.3170   11.7269  -37.8129   10.9747  -37.5483   10.7156  -37.3613   10.8928  -36.6239   11.6130
  5.790  -37.2222   10.9348  -37.2216   11.4664  -37.6798   10.7246  -37.4300   10.4717  -37.2388   10.6482  -36.5411   11.3663
  5.800  -37.1141   10.6847  -37.1201   11.2119  -37.5430   10.4816  -37.3070   10.2341  -37.1120   10.4102  -36.4523   11.1248
  5.810  -37.0007   10.4410  -37.0131   10.9635  -37.4028   10.2455  -37.1798   10.0029  -36.9814   10.1787  -36.3579   10.8885
  5.820  -36.8825   10.2037  -36.9010   10.7212  -37.2595   10.0162  -37.0487    9.7779  -36.8473    9.9536  -36.2585   10.6575
  5.830  -36.7599    9.9726  -36.7842   10.4850  -37.1136    9.7935  -36.9142    9.5591  -36.7102    9.7348  -36.1544   10.4319
  5.840  -36.6332    9.7479  -36.6631   10.2549  -36.9653    9.5772  -36.7766    9.3465  -36.5702    9.5221  -36.0460   10.2115
  5.850  -36.5030    9.5293  -36.5382   10.0308  -36.8149    9.3672  -36.6362    9.1399  -36.4279    9.3155  -35.9336    9.9965
  5.860  -36.3696    9.3169  -36.4097    9.8127  -36.6627    9.1634  -36.4933    8.9391  -36.2834    9.1148  -35.8175    9.7868
  5.870  -36.2333    9.1104  -36.2781    9.6004  -36.5089    8.9656  -36.3483    8.7441  -36.1370    8.9198  -35.6982    9.5824
  5.880  -36.0945    8.9098  -36.1437    9.3939  -36.3538    8.7735  -36.2015    8.5547  -35.9890    8.7305  -35.5758    9.3831
  5.890  -35.9534    8.7150  -36.0068    9.1932  -36.1975    8.5871  -36.0530    8.3708  -35.8396    8.5467  -35.4507    9.1889
  5.900  -35.8103    8.5258  -35.8676    8.9980  -36.0404    8.4063  -35.9032    8.1923  -35.6890    8.3682  -35.3232    8.9998
  5.910  -35.6656    8.3421  -35.7265    8.8083  -35.8825    8.2307  -35.7522    8.0190  -35.5375    8.1949  -35.1935    8.8157
  5.920  -35.5193    8.1638  -35.5836    8.6239  -35.7240    8.0604  -35.6002    7.8508  -35.3852    8.0267  -35.0618    8.6365
  5.930  -35.3719    7.9906  -35.4393    8.4448  -35.5652    7.8950  -35.4475    7.6875  -35.2323    7.8634  -34.9284    8.4621
  5.940  -35.2234    7.8226  -35.2937    8.2707  -35.4060    7.7346  -35.2942    7.5291  -35.0789    7.7048  -34.7935    8.2923
  5.950  -35.0741    7.6595  -35.1471    8.1017  -35.2468    7.5788  -35.1404    7.3752  -34.9252    7.5509  -34.6573    8.1272
  5.960  -34.9241    7.5012  -34.9996    7.9375  -35.0876    7.4277  -34.9864    7.2259  -34.7714    7.4014  -34.5200    7.9665
  5.970  -34.7736    7.3476  -34.8514    7.7779  -34.9284    7.2809  -34.8322    7.0809  -34.6175    7.2563  -34.3817    7.8102
  5.980  -34.6228    7.1985  -34.7026    7.6230  -34.7696    7.1385  -34.6780    6.9402  -34.4637    7.1154  -34.2426    7.6582
  5.990  -34.4717    7.0538  -34.5535    7.4725  -34.6110    7.0002  -34.5239    6.8036  -34.3101    6.9786  -34.1029    7.5103
  6.000  -34.3206    6.9133  -34.4041    7.3263  -34.4528    6.8659  -34.3700    6.6710  -34.1568    6.8457  -33.9626    7.3665
  6.010  -34.1695    6.7769  -34.2546    7.1843  -34.2952    6.7355  -34.2164    6.5422  -34.0038    6.7166  -33.8220    7.2266
  6.020  -34.0186    6.6445  -34.1051    7.0464  -34.1380    6.6088  -34.0631    6.4171  -33.8513    6.5912  -33.6812    7.0906
  6.030  -33.8679    6.5159  -33.9556    6.9124  -33.9816    6.4858  -33.9103    6.2956  -33.6992    6.4694  -33.5401    6.9583
  6.040  -33.7175    6.3911  -33.8064    6.7822  -33.8258    6.3663  -33.7581    6.1776  -33.5478    6.3510  -33.3991    6.8296
  6.050  -33.5675    6.2698  -33.6575    6.6557  -33.6708    6.2502  -33.6064    6.0629  -33.3970    6.2360  -33.2581    6.7044
  6.060  -33.4181    6.1521  -33.5089    6.5327  -33.5165    6.1373  -33.4553    5.9515  -33.2469    6.1242  -33.1172    6.5826
  6.070  -33.2691    6.0377  -33.3607    6.4132  -33.3631    6.0276  -33.3050    5.8432  -33.0975    6.0155  -32.9766    6.4642
  6.080  -33.1208    5.9266  -33.2131    6.2971  -33.2106    5.9210  -33.1554    5.7380  -32.9489    5.9098  -32.8362    6.3489
  6.090  -32.9731    5.8186  -33.0660    6.1842  -33.0590    5.8174  -33.0066    5.6357  -32.8011    5.8070  -32.6962    6.2367
  6.100  -32.8261    5.7136  -32.9195    6.0744  -32.9083    5.7166  -32.8586    5.5362  -32.6542    5.7071  -32.5566    6.1276
  6.110  -32.6799    5.6116  -32.7737    5.9677  -32.7586    5.6186  -32.7115    5.4395  -32.5082    5.6098  -32.4175    6.0214
  6.120  -32.5345    5.5124  -32.6287    5.8639  -32.6099    5.5232  -32.5653    5.3454  -32.3631    5.5152  -32.2789    5.9180
  6.130  -32.3899    5.4159  -32.4843    5.7629  -32.4623    5.4305  -32.4200    5.2539  -32.2189    5.4232  -32.1408    5.8173
  6.140  -32.2462    5.3221  -32.3408    5.6647  -32.3157    5.3402  -32.2757    5.1649  -32.0757    5.3335  -32.0034    5.7193
  6.150  -32.1034    5.2309  -32.1981    5.5691  -32.1701    5.2523  -32.1323    5.0782  -31.9335    5.2463  -31.8667    5.6239
  6.160  -31.9614    5.1421  -32.0563    5.4760  -32.0256    5.1668  -31.9899    4.9938  -31.7922    5.1614  -31.7306    5.5310
  6.170  -31.8204    5.0558  -31.9153    5.3855  -31.8822    5.0835  -31.8484    4.9117  -31.6520    5.0786  -31.5952    5.4405
  6.180  -31.6804    4.9717  -31.7752    5.2973  -31.7398    5.0024  -31.7080    4.8318  -31.5128    4.9981  -31.4606    5.3523
  6.190  -31.5413    4.8898  -31.6361    5.2115  -31.5986    4.9234  -31.5687    4.7539  -31.3746    4.9195  -31.3268    5.2663
  6.200  -31.4032    4.8102  -31.4979    5.1278  -31.4584    4.8465  -31.4303    4.6780  -31.2375    4.8430  -31.1937    5.1826
  6.210  -31.2661    4.7326  -31.3606    5.0464  -31.3194    4.7715  -31.2930    4.6041  -31.1014    4.7685  -31.0615    5.1010
  6.220  -31.1300    4.6570  -31.2244    4.9670  -31.1815    4.6984  -31.1567    4.5321  -30.9663    4.6958  -30.9301    5.0214
  6.230  -30.9949    4.5833  -31.0891    4.8897  -31.0447    4.6271  -31.0215    4.4619  -30.8323    4.6249  -30.7995    4.9439
  6.240  -30.8608    4.5116  -30.9547    4.8144  -30.9090    4.5576  -30.8873    4.3934  -30.6993    4.5558  -30.6698    4.8682
  6.250  -30.7278    4.4417  -30.8214    4.7409  -30.7744    4.4899  -30.7541    4.3267  -30.5674    4.4884  -30.5409    4.7944
  6.260  -30.5957    4.3735  -30.6891    4.6693  -30.6409    4.4238  -30.6220    4.2616  -30.4365    4.4227  -30.4129    4.7225
  6.270  -30.4647    4.3070  -30.5578    4.5994  -30.5085    4.3594  -30.4910    4.1982  -30.3067    4.3585  -30.2859    4.6522
  6.280  -30.3347    4.2422  -30.4274    4.5313  -30.3772    4.2964  -30.3610    4.1362  -30.1779    4.2959  -30.1597    4.5837
  6.290  -30.2058    4.1790  -30.2981    4.4648  -30.2470    4.2351  -30.2320    4.0758  -30.0502    4.2347  -30.0343    4.5168
  6.300  -30.0778    4.1174  -30.1698    4.3999  -30.1178    4.1751  -30.1041    4.0168  -29.9235    4.1750  -29.9099    4.4516
  6.310  -29.9509    4.0572  -30.0425    4.3366  -29.9898    4.1166  -29.9772    3.9592  -29.7978    4.1167  -29.7864    4.3878
  6.320  -29.8250    3.9985  -29.9162    4.2748  -29.8628    4.0595  -29.8513    3.9030  -29.6732    4.0598  -29.6638    4.3256
  6.330  -29.7001    3.9412  -29.7909    4.2145  -29.7369    4.0037  -29.7265    3.8481  -29.5496    4.0042  -29.5421    4.2648
  6.340  -29.5762    3.8852  -29.6666    4.1556  -29.6121    3.9491  -29.6027    3.7945  -29.4270    3.9499  -29.4214    4.2054
  6.350  -29.4533    3.8305  -29.5432    4.0980  -29.4883    3.8959  -29.4799    3.7421  -29.3054    3.8967  -29.3015    4.1474
  6.360  -29.3314    3.7772  -29.4209    4.0418  -29.3655    3.8438  -29.3581    3.6909  -29.1848    3.8448  -29.1825    4.0907
  6.370  -29.2105    3.7250  -29.2996    3.9869  -29.2438    3.7929  -29.2373    3.6409  -29.0651    3.7941  -29.0644    4.0353
  6.380  -29.0906    3.6741  -29.1792    3.9332  -29.1231    3.7432  -29.1175    3.5920  -28.9465    3.7445  -28.9472    3.9811
  6.390  -28.9717    3.6243  -29.0598    3.8808  -29.0035    3.6945  -28.9986    3.5442  -28.8289    3.6959  -28.8309    3.9281
  6.400  -28.8537    3.5757  -28.9414    3.8295  -28.8848    3.6470  -28.8808    3.4975  -28.7122    3.6485  -28.7155    3.8763
  6.410  -28.7367    3.5281  -28.8239    3.7793  -28.7671    3.6004  -28.7639    3.4518  -28.5964    3.6020  -28.6010    3.8257
  6.420  -28.6206    3.4816  -28.7074    3.7303  -28.6504    3.5549  -28.6479    3.4070  -28.4817    3.5566  -28.4874    3.7761
  6.430  -28.5055    3.4361  -28.5918    3.6823  -28.5347    3.5103  -28.5329    3.3633  -28.3678    3.5121  -28.3746    3.7277
  6.440  -28.3914    3.3916  -28.4772    3.6354  -28.4200    3.4667  -28.4189    3.3205  -28.2549    3.4686  -28.2627    3.6802
  6.450  -28.2781    3.3481  -28.3634    3.5895  -28.3062    3.4241  -28.3058    3.2786  -28.1429    3.4260  -28.1517    3.6338
  6.460  -28.1658    3.3055  -28.2506    3.5445  -28.1934    3.3823  -28.1936    3.2376  -28.0319    3.3843  -28.0415    3.5883
  6.470  -28.0544    3.2639  -28.1388    3.5005  -28.0815    3.3414  -28.0823    3.1975  -27.9217    3.3434  -27.9322    3.5438
  6.480  -27.9439    3.2231  -28.0278    3.4575  -27.9705    3.3013  -27.9719    3.1582  -27.8124    3.3034  -27.8237    3.5003
  6.490  -27.8343    3.1832  -27.9177    3.4153  -27.8604    3.2621  -27.8624    3.1197  -27.7040    3.2642  -27.7161    3.4576
  6.500  -27.7256    3.1441  -27.8085    3.3740  -27.7513    3.2236  -27.7538    3.0820  -27.5965    3.2258  -27.6093    3.4158
  6.510  -27.6177    3.1058  -27.7002    3.3336  -27.6430    3.1859  -27.6460    3.0451  -27.4899    3.1881  -27.5033    3.3749
  6.520  -27.5107    3.0683  -27.5927    3.2940  -27.5356    3.1490  -27.5392    3.0089  -27.3841    3.1512  -27.3981    3.3348
  6.530  -27.4046    3.0316  -27.4861    3.2551  -27.4291    3.1128  -27.4331    2.9734  -27.2792    3.1150  -27.2938    3.2955
  6.540  -27.2994    2.9956  -27.3804    3.2171  -27.3235    3.0773  -27.3280    2.9387  -27.1751    3.0796  -27.1902    3.2570
  6.550  -27.1949    2.9603  -27.2755    3.1798  -27.2187    3.0426  -27.2236    2.9046  -27.0718    3.0448  -27.0875    3.2192
  6.560  -27.0913    2.9258  -27.1714    3.1433  -27.1148    3.0084  -27.1201    2.8712  -26.9693    3.0107  -26.9855    3.1822
  6.570  -26.9885    2.8919  -27.0682    3.1075  -27.0117    2.9750  -27.0175    2.8385  -26.8677    2.9773  -26.8843    3.1459
  6.580  -26.8866    2.8587  -26.9657    3.0723  -26.9094    2.9422  -26.9156    2.8064  -26.7669    2.9444  -26.7839    3.1103
  6.590  -26.7854    2.8262  -26.8641    3.0379  -26.8080    2.9100  -26.8145    2.7749  -26.6668    2.9122  -26.6842    3.0754
  6.600  -26.6850    2.7942  -26.7633    3.0041  -26.7073    2.8784  -26.7142    2.7440  -26.5675    2.8807  -26.5853    3.0411
  6.610  -26.5855    2.7629  -26.6633    2.9709  -26.6075    2.8474  -26.6147    2.7137  -26.4691    2.8496  -26.4872    3.0075
  6.620  -26.4866    2.7322  -26.5640    2.9384  -26.5084    2.8170  -26.5160    2.6840  -26.3713    2.8192  -26.3898    2.9745
  6.630  -26.3886    2.7021  -26.4655    2.9065  -26.4101    2.7871  -26.4180    2.6548  -26.2744    2.7893  -26.2931    2.9422
  6.640  -26.2913    2.6725  -26.3678    2.8752  -26.3126    2.7578  -26.3208    2.6261  -26.1781    2.7600  -26.1972    2.9104
  6.650  -26.1948    2.6435  -26.2708    2.8444  -26.2159    2.7290  -26.2244    2.5980  -26.0827    2.7312  -26.1019    2.8792
  6.660  -26.0990    2.6150  -26.1746    2.8142  -26.1199    2.7007  -26.1286    2.5704  -25.9879    2.7029  -26.0074    2.8486
  6.670  -26.0040    2.5870  -26.0791    2.7846  -26.0246    2.6730  -26.0336    2.5433  -25.8939    2.6751  -25.9136    2.8186
  6.680  -25.9096    2.5596  -25.9844    2.7555  -25.9301    2.6457  -25.9394    2.5167  -25.8006    2.6478  -25.8205    2.7890
  6.690  -25.8160    2.5326  -25.8903    2.7269  -25.8363    2.6189  -25.8458    2.4905  -25.7080    2.6210  -25.7281    2.7601
  6.700  -25.7231    2.5062  -25.7970    2.6989  -25.7432    2.5926  -25.7530    2.4649  -25.6160    2.5946  -25.6363    2.7316
  6.710  -25.6309    2.4802  -25.7044    2.6713  -25.6508    2.5667  -25.6608    2.4396  -25.5248    2.5687  -25.5453    2.7036
  6.720  -25.5394    2.4547  -25.6125    2.6442  -25.5592    2.5413  -25.5694    2.4148  -25.4343    2.5433  -25.4549    2.6761
  6.730  -25.4486    2.4296  -25.5212    2.6176  -25.4682    2.5163  -25.4786    2.3905  -25.3444    2.5183  -25.3651    2.6491
  6.740  -25.3584    2.4049  -25.4307    2.5914  -25.3779    2.4917  -25.3885    2.3665  -25.2552    2.4937  -25.2761    2.6226
  6.750  -25.2689    2.3807  -25.3408    2.5657  -25.2882    2.4676  -25.2990    2.3430  -25.1667    2.4695  -25.1876    2.5965
  6.760  -25.1801    2.3569  -25.2516    2.5405  -25.1993    2.4438  -25.2102    2.3199  -25.0788    2.4457  -25.0998    2.5708
  6.770  -25.0919    2.3335  -25.1630    2.5156  -25.1110    2.4204  -25.1221    2.2971  -24.9915    2.4223  -25.0126    2.5456
  6.780  -25.0044    2.3105  -25.0751    2.4912  -25.0233    2.3975  -25.0346    2.2748  -24.9049    2.3993  -24.9261    2.5208
  6.790  -24.9175    2.2879  -24.9879    2.4672  -24.9363    2.3749  -24.9477    2.2528  -24.8189    2.3767  -24.8402    2.4964
  6.800  -24.8313    2.2657  -24.9012    2.4435  -24.8499    2.3527  -24.8615    2.2312  -24.7335    2.3544  -24.7548    2.4725
  6.810  -24.7456    2.2438  -24.8152    2.4203  -24.7642    2.3308  -24.7759    2.2099  -24.6488    2.3325  -24.6701    2.4489
  6.820  -24.6606    2.2223  -24.7298    2.3975  -24.6790    2.3093  -24.6909    2.1890  -24.5646    2.3109  -24.5860    2.4257
  6.830  -24.5762    2.2012  -24.6451    2.3750  -24.5945    2.2881  -24.6065    2.1684  -24.4811    2.2897  -24.5025    2.4029
  6.840  -24.4924    2.1804  -24.5609    2.3529  -24.5106    2.2673  -24.5227    2.1481  -24.3981    2.2688  -24.4196    2.3804
  6.850  -24.4092    2.1600  -24.4774    2.3311  -24.4273    2.2467  -24.4395    2.1282  -24.3157    2.2483  -24.3372    2.3583
  6.860  -24.3266    2.1398  -24.3944    2.3097  -24.3446    2.2266  -24.3569    2.1086  -24.2339    2.2281  -24.2554    2.3366
  6.870  -24.2445    2.1200  -24.3120    2.2886  -24.2624    2.2067  -24.2749    2.0893  -24.1527    2.2081  -24.1742    2.3152
  6.880  -24.1631    2.1005  -24.2302    2.2678  -24.1809    2.1871  -24.1934    2.0703  -24.0721    2.1885  -24.0935    2.2941
  6.890  -24.0822    2.0813  -24.1490    2.2474  -24.0999    2.1678  -24.1125    2.0516  -23.9920    2.1692  -24.0134    2.2734
  6.900  -24.0018    2.0624  -24.0683    2.2273  -24.0195    2.1489  -24.0322    2.0332  -23.9124    2.1502  -23.9339    2.2529
  6.910  -23.9221    2.0439  -23.9882    2.2075  -23.9396    2.1302  -23.9524    2.0150  -23.8334    2.1315  -23.8548    2.2328
  6.920  -23.8428    2.0256  -23.9086    2.1880  -23.8603    2.1117  -23.8732    1.9972  -23.7550    2.1130  -23.7764    2.2130
  6.930  -23.7641    2.0075  -23.8296    2.1688  -23.7815    2.0936  -23.7945    1.9796  -23.6770    2.0948  -23.6984    2.1935
  6.940  -23.6860    1.9898  -23.7512    2.1499  -23.7033    2.0757  -23.7163    1.9623  -23.5996    2.0769  -23.6210    2.1743
  6.950  -23.6084    1.9723  -23.6732    2.1313  -23.6256    2.0581  -23.6387    1.9452  -23.5228    2.0593  -23.5441    2.1554
  6.960  -23.5313    1.9551  -23.5958    2.1129  -23.5485    2.0408  -23.5616    1.9284  -23.4464    2.0419  -23.4677    2.1368
  6.970  -23.4547    1.9381  -23.5190    2.0948  -23.4718    2.0237  -23.4850    1.9119  -23.3706    2.0248  -23.3918    2.1184
  6.980  -23.3787    1.9214  -23.4426    2.0770  -23.3957    2.0069  -23.4089    1.8956  -23.2952    2.0079  -23.3164    2.1004
  6.990  -23.3031    1.9050  -23.3668    2.0595  -23.3201    1.9902  -23.3334    1.8795  -23.2204    1.9912  -23.2415    2.0825
  7.000  -23.2281    1.8888  -23.2914    2.0422  -23.2450    1.9739  -23.2583    1.8637  -23.1460    1.9748  -23.1671    2.0650
  7.010  -23.1535    1.8728  -23.2166    2.0251  -23.1703    1.9577  -23.1837    1.8481  -23.0722    1.9587  -23.0932    2.0477
  7.020  -23.0795    1.8571  -23.1422    2.0083  -23.0962    1.9418  -23.1096    1.8327  -22.9988    1.9427  -23.0197    2.0306
  7.030  -23.0059    1.8416  -23.0684    1.9918  -23.0226    1.9262  -23.0360    1.8175  -22.9259    1.9270  -22.9468    2.0138
  7.040  -22.9328    1.8263  -22.9950    1.9754  -22.9494    1.9107  -22.9629    1.8026  -22.8535    1.9115  -22.8743    1.9972
  7.050  -22.8602    1.8112  -22.9221    1.9593  -22.8767    1.8954  -22.8903    1.7878  -22.7815    1.8962  -22.8023    1.9809
  7.060  -22.7880    1.7963  -22.8497    1.9435  -22.8045    1.8804  -22.8181    1.7733  -22.7101    1.8811  -22.7307    1.9648
  7.070  -22.7163    1.7817  -22.7778    1.9278  -22.7328    1.8656  -22.7464    1.7590  -22.6390    1.8663  -22.6596    1.9489
  7.080  -22.6451    1.7672  -22.7063    1.9124  -22.6615    1.8509  -22.6751    1.7449  -22.5684    1.8516  -22.5890    1.9332
  7.090  -22.5743    1.7530  -22.6353    1.8972  -22.5907    1.8365  -22.6043    1.7309  -22.4983    1.8371  -22.5188    1.9178
  7.100  -22.5040    1.7390  -22.5647    1.8822  -22.5203    1.8223  -22.5340    1.7172  -22.4286    1.8228  -22.4490    1.9025
  7.110  -22.4342    1.7251  -22.4946    1.8673  -22.4504    1.8082  -22.4641    1.7036  -22.3594    1.8088  -22.3797    1.8875
  7.120  -22.3647    1.7115  -22.4249    1.8527  -22.3809    1.7943  -22.3946    1.6903  -22.2905    1.7949  -22.3108    1.8727
  7.130  -22.2957    1.6980  -22.3556    1.8383  -22.3119    1.7807  -22.3256    1.6771  -22.2222    1.7811  -22.2423    1.8580
  7.140  -22.2272    1.6847  -22.2868    1.8241  -22.2433    1.7672  -22.2570    1.6641  -22.1542    1.7676  -22.1743    1.8436
  7.150  -22.1590    1.6716  -22.2185    1.8101  -22.1751    1.7539  -22.1888    1.6512  -22.0867    1.7543  -22.1066    1.8294
  7.160  -22.0913    1.6587  -22.1505    1.7962  -22.1073    1.7407  -22.1210    1.6386  -22.0195    1.7411  -22.0394    1.8153
  7.170  -22.0240    1.6459  -22.0830    1.7826  -22.0400    1.7277  -22.0537    1.6261  -21.9528    1.7281  -21.9726    1.8014
  7.180  -21.9571    1.6333  -22.0159    1.7691  -21.9730    1.7149  -21.9868    1.6137  -21.8865    1.7152  -21.9062    1.7878
  7.190  -21.8906    1.6209  -21.9492    1.7558  -21.9065    1.7023  -21.9202    1.6016  -21.8206    1.7025  -21.8402    1.7743
  7.200  -21.8246    1.6086  -21.8829    1.7427  -21.8404    1.6898  -21.8541    1.5896  -21.7551    1.6900  -21.7746    1.7609
  7.210  -21.7589    1.5965  -21.8170    1.7297  -21.7747    1.6775  -21.7884    1.5777  -21.6900    1.6777  -21.7094    1.7478
  7.220  -21.6936    1.5846  -21.7515    1.7169  -21.7094    1.6653  -21.7231    1.5660  -21.6252    1.6655  -21.6446    1.7348
  7.230  -21.6287    1.5728  -21.6864    1.7043  -21.6444    1.6533  -21.6582    1.5544  -21.5609    1.6534  -21.5802    1.7220
  7.240  -21.5642    1.5612  -21.6217    1.6918  -21.5799    1.6414  -21.5936    1.5430  -21.4970    1.6415  -21.5161    1.7093
  7.250  -21.5001    1.5497  -21.5574    1.6795  -21.5158    1.6297  -21.5295    1.5318  -21.4334    1.6298  -21.4525    1.6968
  7.260  -21.4364    1.5384  -21.4935    1.6673  -21.4520    1.6181  -21.4657    1.5207  -21.3702    1.6182  -21.3892    1.6845
  7.270  -21.3730    1.5272  -21.4299    1.6553  -21.3886    1.6067  -21.4023    1.5097  -21.3073    1.6067  -21.3263    1.6723
  7.280  -21.3101    1.5161  -21.3668    1.6434  -21.3256    1.5954  -21.3392    1.4988  -21.2449    1.5954  -21.2637    1.6602
  7.290  -21.2474    1.5052  -21.3040    1.6317  -21.2629    1.5843  -21.2766    1.4881  -21.1828    1.5842  -21.2015    1.6484
  7.300  -21.1852    1.4944  -21.2415    1.6201  -21.2006    1.5732  -21.2143    1.4776  -21.1210    1.5731  -21.1397    1.6366
  7.310  -21.1233    1.4838  -21.1795    1.6087  -21.1387    1.5624  -21.1523    1.4671  -21.0597    1.5622  -21.0782    1.6250
  7.320  -21.0618    1.4733  -21.1178    1.5974  -21.0771    1.5516  -21.0908    1.4568  -20.9986    1.5514  -21.0171    1.6136
  7.330  -21.0006    1.4629  -21.0564    1.5863  -21.0159    1.5410  -21.0295    1.4466  -20.9379    1.5408  -20.9563    1.6023
  7.340  -20.9398    1.4526  -20.9954    1.5752  -20.9550    1.5305  -20.9687    1.4365  -20.8776    1.5303  -20.8959    1.5911
  7.350  -20.8793    1.4425  -20.9348    1.5644  -20.8945    1.5201  -20.9081    1.4266  -20.8176    1.5198  -20.8358    1.5800
  7.360  -20.8191    1.4325  -20.8745    1.5536  -20.8343    1.5099  -20.8479    1.4168  -20.7579    1.5096  -20.7760    1.5691
  7.370  -20.7593    1.4226  -20.8145    1.5430  -20.7745    1.4997  -20.7881    1.4071  -20.6986    1.4994  -20.7166    1.5584
  7.380  -20.6999    1.4128  -20.7549    1.5325  -20.7150    1.4897  -20.7286    1.3975  -20.6396    1.4894  -20.6575    1.5477
  7.390  -20.6407    1.4032  -20.6956    1.5221  -20.6558    1.4798  -20.6694    1.3880  -20.5810    1.4794  -20.5988    1.5372
  7.400  -20.5819    1.3937  -20.6367    1.5118  -20.5970    1.4701  -20.6105    1.3786  -20.5226    1.4696  -20.5404    1.5268
  7.410  -20.5235    1.3843  -20.5780    1.5017  -20.5385    1.4604  -20.5520    1.3694  -20.4646    1.4599  -20.4823    1.5165
  7.420  -20.4653    1.3749  -20.5198    1.4917  -20.4803    1.4508  -20.4938    1.3603  -20.4069    1.4504  -20.4245    1.5064
  7.430  -20.4075    1.3657  -20.4618    1.4818  -20.4224    1.4414  -20.4359    1.3512  -20.3495    1.4409  -20.3670    1.4963
  7.440  -20.3500    1.3567  -20.4041    1.4720  -20.3649    1.4321  -20.3783    1.3423  -20.2925    1.4315  -20.3098    1.4864
  7.450  -20.2928    1.3477  -20.3468    1.4623  -20.3077    1.4228  -20.3211    1.3335  -20.2357    1.4223  -20.2530    1.4766
  7.460  -20.2359    1.3388  -20.2898    1.4528  -20.2507    1.4137  -20.2642    1.3247  -20.1793    1.4131  -20.1964    1.4669
  7.470  -20.1793    1.3300  -20.2331    1.4433  -20.1941    1.4047  -20.2075    1.3161  -20.1231    1.4040  -20.1402    1.4573
  7.480  -20.1230    1.3214  -20.1767    1.4340  -20.1378    1.3958  -20.1512    1.3076  -20.0673    1.3951  -20.0843    1.4478
  7.490  -20.0670    1.3128  -20.1206    1.4247  -20.0818    1.3869  -20.0952    1.2992  -20.0117    1.3862  -20.0286    1.4385
  7.500  -20.0114    1.3043  -20.0648    1.4156  -20.0261    1.3782  -20.0394    1.2908  -19.9565    1.3775  -19.9733    1.4292
  7.510  -19.9560    1.2959  -20.0093    1.4065  -19.9707    1.3696  -19.9840    1.2826  -19.9015    1.3688  -19.9182    1.4201
  7.520  -19.9009    1.2877  -19.9541    1.3976  -19.9155    1.3611  -19.9288    1.2745  -19.8468    1.3603  -19.8635    1.4110
  7.530  -19.8461    1.2795  -19.8992    1.3888  -19.8607    1.3526  -19.8740    1.2664  -19.7924    1.3518  -19.8090    1.4021
  7.540  -19.7916    1.2714  -19.8446    1.3800  -19.8062    1.3443  -19.8194    1.2584  -19.7383    1.3434  -19.7548    1.3932
  7.550  -19.7373    1.2634  -19.7902    1.3714  -19.7519    1.3360  -19.7651    1.2506  -19.6845    1.3352  -19.7009    1.3845
  7.560  -19.6834    1.2555  -19.7362    1.3628  -19.6979    1.3279  -19.7111    1.2428  -19.6309    1.3270  -19.6472    1.3758
  7.570  -19.6297    1.2476  -19.6824    1.3544  -19.6442    1.3198  -19.6574    1.2351  -19.5777    1.3189  -19.5939    1.3672
  7.580  -19.5763    1.2399  -19.6290    1.3460  -19.5908    1.3118  -19.6040    1.2275  -19.5247    1.3109  -19.5408    1.3588
  7.590  -19.5232    1.2323  -19.5758    1.3378  -19.5376    1.3039  -19.5508    1.2200  -19.4720    1.3029  -19.4880    1.3504
  7.600  -19.4703    1.2247  -19.5228    1.3296  -19.4847    1.2961  -19.4979    1.2125  -19.4195    1.2951  -19.4354    1.3421
  7.610  -19.4178    1.2172  -19.4702    1.3215  -19.4321    1.2884  -19.4453    1.2052  -19.3673    1.2873  -19.3832    1.3339
  7.620  -19.3654    1.2098  -19.4178    1.3135  -19.3798    1.2807  -19.3929    1.1979  -19.3154    1.2797  -19.3311    1.3258
  7.630  -19.3134    1.2025  -19.3657    1.3056  -19.3277    1.2732  -19.3408    1.1907  -19.2637    1.2721  -19.2794    1.3178
  7.640  -19.2616    1.1953  -19.3138    1.2977  -19.2759    1.2657  -19.2890    1.1836  -19.2123    1.2646  -19.2279    1.3099
  7.650  -19.2101    1.1881  -19.2622    1.2900  -19.2243    1.2583  -19.2374    1.1765  -19.1611    1.2571  -19.1766    1.3021
  7.660  -19.1588    1.1810  -19.2109    1.2823  -19.1730    1.2510  -19.1860    1.1696  -19.1102    1.2498  -19.1256    1.2943
  7.670  -19.1077    1.1740  -19.1598    1.2747  -19.1219    1.2437  -19.1350    1.1627  -19.0595    1.2425  -19.0749    1.2866
  7.680  -19.0570    1.1671  -19.1090    1.2672  -19.0711    1.2365  -19.0841    1.1559  -19.0091    1.2353  -19.0244    1.2790
  7.690  -19.0064    1.1603  -19.0584    1.2598  -19.0206    1.2295  -19.0336    1.1491  -18.9590    1.2282  -18.9742    1.2715
  7.700  -18.9562    1.1535  -19.0080    1.2525  -18.9702    1.2224  -18.9832    1.1424  -18.9090    1.2212  -18.9242    1.2641
  7.710  -18.9061    1.1468  -18.9580    1.2452  -18.9202    1.2155  -18.9331    1.1358  -18.8593    1.2142  -18.8744    1.2567
  7.720  -18.8563    1.1402  -18.9081    1.2380  -18.8703    1.2086  -18.8833    1.1293  -18.8099    1.2073  -18.8249    1.2495
  7.730  -18.8067    1.1336  -18.8585    1.2309  -18.8207    1.2018  -18.8337    1.1229  -18.7607    1.2005  -18.7756    1.2423
  7.740  -18.7574    1.1271  -18.8092    1.2238  -18.7714    1.1951  -18.7843    1.1165  -18.7117    1.1937  -18.7265    1.2352
  7.750  -18.7083    1.1207  -18.7601    1.2169  -18.7222    1.1884  -18.7352    1.1102  -18.6630    1.1870  -18.6777    1.2281
  7.760  -18.6595    1.1144  -18.7112    1.2100  -18.6733    1.1819  -18.6863    1.1039  -18.6145    1.1804  -18.6291    1.2211
  7.770  -18.6108    1.1081  -18.6625    1.2031  -18.6247    1.1753  -18.6376    1.0977  -18.5662    1.1739  -18.5807    1.2142
  7.780  -18.5624    1.1019  -18.6141    1.1964  -18.5762    1.1689  -18.5891    1.0916  -18.5181    1.1674  -18.5326    1.2074
  7.790  -18.5142    1.0957  -18.5659    1.1897  -18.5280    1.1625  -18.5409    1.0856  -18.4703    1.1610  -18.4847    1.2007
  7.800  -18.4663    1.0897  -18.5180    1.1831  -18.4800    1.1562  -18.4929    1.0796  -18.4226    1.1546  -18.4370    1.1940
  7.810  -18.4185    1.0836  -18.4702    1.1765  -18.4323    1.1499  -18.4451    1.0736  -18.3752    1.1483  -18.3895    1.1874
  7.820  -18.3710    1.0777  -18.4227    1.1700  -18.3847    1.1438  -18.3976    1.0678  -18.3280    1.1421  -18.3422    1.1808
  7.830  -18.3237    1.0718  -18.3754    1.1636  -18.3374    1.1376  -18.3502    1.0620  -18.2811    1.1360  -18.2952    1.1744
  7.840  -18.2766    1.0660  -18.3283    1.1573  -18.2902    1.1316  -18.3031    1.0563  -18.2343    1.1299  -18.2484    1.1679
  7.850  -18.2297    1.0602  -18.2815    1.1510  -18.2433    1.1256  -18.2562    1.0506  -18.1877    1.1239  -18.2017    1.1616
  7.860  -18.1830    1.0545  -18.2348    1.1448  -18.1966    1.1197  -18.2095    1.0450  -18.1414    1.1179  -18.1553    1.1553
  7.870  -18.1366    1.0489  -18.1884    1.1386  -18.1501    1.1138  -18.1630    1.0394  -18.0953    1.1120  -18.1091    1.1491
  7.880  -18.0903    1.0433  -18.1422    1.1325  -18.1038    1.1080  -18.1167    1.0339  -18.0493    1.1062  -18.0631    1.1430
  7.890  -18.0442    1.0378  -18.0961    1.1265  -18.0577    1.1022  -18.0706    1.0285  -18.0036    1.1004  -18.0173    1.1369
  7.900  -17.9984    1.0324  -18.0503    1.1205  -18.0118    1.0965  -18.0247    1.0231  -17.9581    1.0947  -17.9717    1.1309
  7.910  -17.9527    1.0270  -18.0047    1.1146  -17.9662    1.0909  -17.9790    1.0178  -17.9127    1.0890  -17.9263    1.1249
  7.920  -17.9073    1.0216  -17.9593    1.1088  -17.9207    1.0854  -17.9335    1.0125  -17.8676    1.0834  -17.8810    1.1190
  7.930  -17.8620    1.0163  -17.9141    1.1030  -17.8754    1.0798  -17.8882    1.0073  -17.8226    1.0779  -17.8360    1.1132
  7.940  -17.8169    1.0111  -17.8691    1.0972  -17.8302    1.0744  -17.8431    1.0022  -17.7779    1.0724  -17.7912    1.1074
  7.950  -17.7720    1.0060  -17.8243    1.0916  -17.7853    1.0690  -17.7982    0.9971  -17.7333    1.0669  -17.7466    1.1017
  7.960  -17.7273    1.0008  -17.7796    1.0859  -17.7406    1.0637  -17.7535    0.9920  -17.6889    1.0616  -17.7021    1.0961
  7.970  -17.6828    0.9958  -17.7352    1.0804  -17.6961    1.0584  -17.7089    0.9870  -17.6447    1.0562  -17.6578    1.0905
  7.980  -17.6385    0.9908  -17.6910    1.0749  -17.6517    1.0532  -17.6646    0.9821  -17.6007    1.0510  -17.6138    1.0850
  7.990  -17.5943    0.9858  -17.6469    1.0694  -17.6075    1.0480  -17.6204    0.9772  -17.5568    1.0458  -17.5699    1.0795
  8.000  -17.5504    0.9810  -17.6030    1.0641  -17.5635    1.0429  -17.5764    0.9724  -17.5132    1.0406  -17.5261    1.0741
  8.010  -17.5066    0.9761  -17.5594    1.0587  -17.5197    1.0378  -17.5326    0.9676  -17.4697    1.0355  -17.4826    1.0687
  8.020  -17.4630    0.9713  -17.5159    1.0535  -17.4761    1.0328  -17.4890    0.9629  -17.4264    1.0305  -17.4392    1.0634
  8.030  -17.4195    0.9666  -17.4725    1.0482  -17.4326    1.0279  -17.4456    0.9583  -17.3833    1.0255  -17.3960    1.0582
  8.040  -17.3763    0.9619  -17.4294    1.0431  -17.3893    1.0230  -17.4023    0.9536  -17.3403    1.0206  -17.3530    1.0530
  8.050  -17.3332    0.9573  -17.3864    1.0379  -17.3462    1.0181  -17.3592    0.9491  -17.2975    1.0157  -17.3101    1.0479
  8.060  -17.2902    0.9528  -17.3436    1.0329  -17.3032    1.0133  -17.3162    0.9446  -17.2549    1.0109  -17.2675    1.0428
  8.070  -17.2475    0.9482  -17.3010    1.0279  -17.2604    1.0086  -17.2735    0.9401  -17.2124    1.0061  -17.2249    1.0378
  8.080  -17.2049    0.9438  -17.2586    1.0229  -17.2178    1.0039  -17.2308    0.9357  -17.1701    1.0013  -17.1826    1.0328
  8.090  -17.1624    0.9394  -17.2163    1.0180  -17.1753    0.9993  -17.1884    0.9314  -17.1280    0.9967  -17.1404    1.0279
  8.100  -17.1201    0.9350  -17.1742    1.0132  -17.1330    0.9947  -17.1461    0.9271  -17.0860    0.9921  -17.0984    1.0230
  8.110  -17.0780    0.9307  -17.1322    1.0084  -17.0908    0.9902  -17.1040    0.9228  -17.0442    0.9875  -17.0565    1.0182
  8.120  -17.0361    0.9264  -17.0905    1.0036  -17.0488    0.9857  -17.0620    0.9186  -17.0026    0.9830  -17.0148    1.0135
  8.130  -16.9942    0.9222  -17.0488    0.9989  -17.0070    0.9813  -17.0202    0.9144  -16.9610    0.9785  -16.9732    1.0088
  8.140  -16.9526    0.9181  -17.0074    0.9943  -16.9653    0.9769  -16.9786    0.9103  -16.9197    0.9741  -16.9318    1.0041
  8.150  -16.9111    0.9140  -16.9661    0.9897  -16.9238    0.9726  -16.9371    0.9063  -16.8785    0.9697  -16.8905    0.9996
  8.160  -16.8697    0.9099  -16.9249    0.9851  -16.8824    0.9684  -16.8957    0.9023  -16.8374    0.9654  -16.8494    0.9950
  8.170  -16.8285    0.9059  -16.8839    0.9806  -16.8411    0.9642  -16.8545    0.8983  -16.7965    0.9611  -16.8084    0.9905
  8.180  -16.7874    0.9020  -16.8431    0.9762  -16.8000    0.9600  -16.8135    0.8944  -16.7557    0.9569  -16.7676    0.9861
  8.190  -16.7465    0.8981  -16.8024    0.9718  -16.7591    0.9559  -16.7725    0.8906  -16.7151    0.9528  -16.7269    0.9817
  8.200  -16.7057    0.8942  -16.7619    0.9674  -16.7182    0.9518  -16.7318    0.8868  -16.6746    0.9486  -16.6864    0.9774
  8.210  -16.6650    0.8904  -16.7215    0.9631  -16.6775    0.9478  -16.6911    0.8830  -16.6343    0.9446  -16.6460    0.9731
  8.220  -16.6245    0.8867  -16.6812    0.9589  -16.6370    0.9439  -16.6506    0.8793  -16.5941    0.9406  -16.6057    0.9689
  8.230  -16.5841    0.8830  -16.6411    0.9546  -16.5966    0.9400  -16.6103    0.8757  -16.5540    0.9366  -16.5656    0.9648
  8.240  -16.5439    0.8793  -16.6011    0.9505  -16.5563    0.9361  -16.5700    0.8721  -16.5140    0.9327  -16.5256    0.9606
  8.250  -16.5037    0.8757  -16.5613    0.9464  -16.5161    0.9323  -16.5299    0.8685  -16.4742    0.9288  -16.4857    0.9566
  8.260  -16.4637    0.8722  -16.5216    0.9423  -16.4761    0.9286  -16.4900    0.8650  -16.4345    0.9250  -16.4459    0.9526
  8.270  -16.4238    0.8687  -16.4821    0.9383  -16.4362    0.9249  -16.4501    0.8616  -16.3949    0.9212  -16.4063    0.9486
  8.280  -16.3841    0.8653  -16.4427    0.9344  -16.3964    0.9213  -16.4104    0.8581  -16.3555    0.9175  -16.3668    0.9447
  8.290  -16.3444    0.8619  -16.4034    0.9304  -16.3567    0.9177  -16.3708    0.8548  -16.3162    0.9139  -16.3274    0.9409
  8.300  -16.3049    0.8585  -16.3642    0.9266  -16.3172    0.9141  -16.3313    0.8515  -16.2770    0.9103  -16.2882    0.9371
  8.310  -16.2655    0.8553  -16.3252    0.9228  -16.2777    0.9107  -16.2919    0.8483  -16.2379    0.9067  -16.2490    0.9333
  8.320  -16.2262    0.8520  -16.2863    0.9190  -16.2384    0.9072  -16.2527    0.8451  -16.1989    0.9032  -16.2100    0.9296
  8.330  -16.1870    0.8489  -16.2475    0.9153  -16.1992    0.9039  -16.2136    0.8419  -16.1600    0.8998  -16.1711    0.9260
  8.340  -16.1480    0.8457  -16.2088    0.9116  -16.1601    0.9006  -16.1746    0.8388  -16.1213    0.8964  -16.1323    0.9224
  8.350  -16.1090    0.8427  -16.1703    0.9080  -16.1211    0.8973  -16.1356    0.8358  -16.0826    0.8930  -16.0936    0.9189
  8.360  -16.0701    0.8397  -16.1319    0.9044  -16.0822    0.8941  -16.0968    0.8328  -16.0441    0.8897  -16.0550    0.9154
  8.370  -16.0313    0.8367  -16.0936    0.9009  -16.0434    0.8910  -16.0581    0.8299  -16.0056    0.8865  -16.0165    0.9120
  8.380  -15.9927    0.8338  -16.0554    0.8974  -16.0047    0.8879  -16.0195    0.8270  -15.9673    0.8833  -15.9781    0.9087
  8.390  -15.9541    0.8310  -16.0173    0.8940  -15.9660    0.8849  -15.9810    0.8242  -15.9290    0.8802  -15.9398    0.9054
  8.400  -15.9156    0.8282  -15.9793    0.8906  -15.9275    0.8819  -15.9426    0.8215  -15.8909    0.8771  -15.9016    0.9021
  8.410  -15.8772    0.8255  -15.9414    0.8873  -15.8891    0.8790  -15.9043    0.8188  -15.8528    0.8741  -15.8635    0.8990
  8.420  -15.8389    0.8228  -15.9037    0.8840  -15.8507    0.8762  -15.8661    0.8161  -15.8148    0.8711  -15.8255    0.8958
  8.430  -15.8007    0.8202  -15.8660    0.8808  -15.8125    0.8734  -15.8280    0.8135  -15.7770    0.8682  -15.7876    0.8928
  8.440  -15.7625    0.8177  -15.8284    0.8777  -15.7743    0.8707  -15.7899    0.8110  -15.7392    0.8654  -15.7497    0.8898
  8.450  -15.7244    0.8152  -15.7910    0.8745  -15.7362    0.8680  -15.7519    0.8086  -15.7014    0.8626  -15.7120    0.8868
  8.460  -15.6864    0.8128  -15.7536    0.8715  -15.6982    0.8654  -15.7141    0.8062  -15.6638    0.8599  -15.6743    0.8840
  8.470  -15.6485    0.8105  -15.7163    0.8685  -15.6602    0.8629  -15.6763    0.8038  -15.6262    0.8572  -15.6367    0.8812
  8.480  -15.6106    0.8082  -15.6792    0.8655  -15.6223    0.8605  -15.6385    0.8016  -15.5887    0.8547  -15.5991    0.8784
  8.490  -15.5729    0.8060  -15.6421    0.8626  -15.5845    0.8581  -15.6009    0.7994  -15.5513    0.8521  -15.5617    0.8757
  8.500  -15.5351    0.8039  -15.6050    0.8598  -15.5467    0.8558  -15.5633    0.7972  -15.5140    0.8497  -15.5243    0.8731
  8.510  -15.4975    0.8018  -15.5681    0.8570  -15.5090    0.8535  -15.5257    0.7952  -15.4767    0.8473  -15.4869    0.8706
  8.520  -15.4598    0.7999  -15.5313    0.8543  -15.4714    0.8514  -15.4883    0.7932  -15.4394    0.8450  -15.4497    0.8681
  8.530  -15.4223    0.7979  -15.4945    0.8516  -15.4338    0.8493  -15.4509    0.7913  -15.4022    0.8427  -15.4125    0.8657
  8.540  -15.3847    0.7961  -15.4578    0.8490  -15.3962    0.8473  -15.4135    0.7894  -15.3651    0.8405  -15.3753    0.8634
  8.550  -15.3473    0.7944  -15.4212    0.8465  -15.3587    0.8454  -15.3762    0.7877  -15.3280    0.8384  -15.3382    0.8611
  8.560  -15.3098    0.7927  -15.3846    0.8440  -15.3213    0.8435  -15.3389    0.7860  -15.2910    0.8364  -15.3011    0.8590
  8.570  -15.2724    0.7911  -15.3482    0.8416  -15.2838    0.8418  -15.3017    0.7844  -15.2540    0.8345  -15.2641    0.8569
  8.580  -15.2351    0.7897  -15.3117    0.8392  -15.2464    0.8402  -15.2645    0.7829  -15.2171    0.8326  -15.2271    0.8549
  8.590  -15.1977    0.7883  -15.2754    0.8369  -15.2090    0.8386  -15.2274    0.7815  -15.1801    0.8308  -15.1901    0.8530
  8.600  -15.1604    0.7870  -15.2391    0.8347  -15.1717    0.8371  -15.1903    0.7801  -15.1432    0.8291  -15.1532    0.8511
  8.610  -15.1231    0.7858  -15.2028    0.8325  -15.1344    0.8358  -15.1532    0.7789  -15.1064    0.8275  -15.1163    0.8494
  8.620  -15.0858    0.7847  -15.1666    0.8304  -15.0970    0.8345  -15.1162    0.7778  -15.0695    0.8260  -15.0794    0.8478
  8.630  -15.0485    0.7837  -15.1305    0.8284  -15.0597    0.8334  -15.0791    0.7767  -15.0327    0.8246  -15.0426    0.8462
  8.640  -15.0112    0.7828  -15.0944    0.8265  -15.0224    0.8323  -15.0421    0.7758  -14.9959    0.8233  -15.0057    0.8448
  8.650  -14.9739    0.7820  -15.0583    0.8246  -14.9851    0.8314  -15.0051    0.7750  -14.9591    0.8221  -14.9689    0.8434
  8.660  -14.9366    0.7814  -15.0223    0.8229  -14.9478    0.8306  -14.9681    0.7743  -14.9223    0.8210  -14.9320    0.8422
  8.670  -14.8993    0.7809  -14.9863    0.8212  -14.9104    0.8299  -14.9311    0.7737  -14.8854    0.8200  -14.8952    0.8411
  8.680  -14.8620    0.7805  -14.9504    0.8195  -14.8731    0.8294  -14.8941    0.7732  -14.8486    0.8191  -14.8583    0.8401
  8.690  -14.8247    0.7802  -14.9144    0.8180  -14.8357    0.8290  -14.8570    0.7728  -14.8118    0.8183  -14.8215    0.8392
  8.700  -14.7873    0.7801  -14.8785    0.8166  -14.7983    0.8287  -14.8200    0.7726  -14.7749    0.8177  -14.7846    0.8384
  8.710  -14.7499    0.7802  -14.8426    0.8152  -14.7608    0.8286  -14.7829    0.7726  -14.7380    0.8172  -14.7477    0.8378
  8.720  -14.7124    0.7803  -14.8067    0.8140  -14.7234    0.8287  -14.7458    0.7727  -14.7011    0.8169  -14.7107    0.8373
  8.730  -14.6749    0.7807  -14.7709    0.8128  -14.6858    0.8289  -14.7087    0.7729  -14.6642    0.8167  -14.6737    0.8370
  8.740  -14.6373    0.7812  -14.7350    0.8118  -14.6482    0.8293  -14.6715    0.7733  -14.6272    0.8166  -14.6367    0.8368
  8.750  -14.5997    0.7820  -14.6991    0.8108  -14.6105    0.8298  -14.6343    0.7739  -14.5901    0.8167  -14.5996    0.8368
  8.760  -14.5620    0.7829  -14.6632    0.8100  -14.5728    0.8306  -14.5971    0.7746  -14.5530    0.8170  -14.5625    0.8370
  8.770  -14.5242    0.7840  -14.6273    0.8093  -14.5350    0.8316  -14.5597    0.7755  -14.5158    0.8174  -14.5253    0.8373
  8.780  -14.4863    0.7853  -14.5914    0.8087  -14.4971    0.8328  -14.5223    0.7767  -14.4786    0.8181  -14.4880    0.8378
  8.790  -14.4483    0.7869  -14.5555    0.8082  -14.4591    0.8342  -14.4849    0.7780  -14.4412    0.8189  -14.4507    0.8386
  8.800  -14.4102    0.7887  -14.5195    0.8079  -14.4210    0.8359  -14.4473    0.7796  -14.4038    0.8199  -14.4132    0.8395
  8.810  -14.3720    0.7907  -14.4836    0.8077  -14.3827    0.8378  -14.4097    0.7814  -14.3663    0.8212  -14.3757    0.8406
  8.820  -14.3336    0.7930  -14.4475    0.8077  -14.3444    0.8400  -14.3719    0.7835  -14.3286    0.8227  -14.3380    0.8420
  8.830  -14.2952    0.7956  -14.4114    0.8078  -14.3059    0.8425  -14.3341    0.7858  -14.2909    0.8244  -14.3002    0.8437
  8.840  -14.2566    0.7985  -14.3753    0.8080  -14.2672    0.8453  -14.2961    0.7884  -14.2530    0.8264  -14.2624    0.8456
  8.850  -14.2178    0.8018  -14.3391    0.8085  -14.2285    0.8484  -14.2580    0.7913  -14.2150    0.8287  -14.2243    0.8477
  8.860  -14.1788    0.8054  -14.3029    0.8091  -14.1895    0.8519  -14.2198    0.7945  -14.1768    0.8313  -14.1861    0.8502
  8.870  -14.1397    0.8093  -14.2665    0.8099  -14.1504    0.8558  -14.1814    0.7981  -14.1385    0.8342  -14.1478    0.8530
  8.880  -14.1004    0.8137  -14.2301    0.8108  -14.1111    0.8600  -14.1429    0.8020  -14.1000    0.8375  -14.1093    0.8562
  8.890  -14.0609    0.8185  -14.1936    0.8120  -14.0716    0.8647  -14.1042    0.8063  -14.0614    0.8411  -14.0706    0.8597
  8.900  -14.0212    0.8237  -14.1570    0.8135  -14.0318    0.8699  -14.0654    0.8110  -14.0225    0.8451  -14.0318    0.8636
  8.910  -13.9812    0.8294  -14.1203    0.8151  -13.9919    0.8755  -14.0263    0.8162  -13.9834    0.8495  -13.9927    0.8679
  8.920  -13.9411    0.8357  -14.0835    0.8170  -13.9517    0.8817  -13.9871    0.8218  -13.9442    0.8543  -13.9534    0.8726
  8.930  -13.9006    0.8425  -14.0466    0.8191  -13.9114    0.8885  -13.9477    0.8280  -13.9047    0.8597  -13.9139    0.8779
  8.940  -13.8600    0.8499  -14.0095    0.8216  -13.8707    0.8958  -13.9081    0.8347  -13.8650    0.8655  -13.8742    0.8836
  8.950  -13.8190    0.8580  -13.9723    0.8243  -13.8298    0.9039  -13.8683    0.8420  -13.8250    0.8719  -13.8342    0.8899
  8.960  -13.7778    0.8668  -13.9349    0.8273  -13.7886    0.9126  -13.8282    0.8499  -13.7848    0.8789  -13.7940    0.8968
  8.970  -13.7363    0.8764  -13.8974    0.8307  -13.7472    0.9221  -13.7880    0.8585  -13.7443    0.8866  -13.7535    0.9044
  8.980  -13.6946    0.8868  -13.8597    0.8344  -13.7055    0.9325  -13.7475    0.8679  -13.7035    0.8950  -13.7127    0.9127
  8.990  -13.6525    0.8981  -13.8218    0.8385  -13.6635    0.9438  -13.7068    0.8780  -13.6625    0.9041  -13.6717    0.9217
  9.000  -13.6102    0.9103  -13.7837    0.8430  -13.6213    0.9560  -13.6659    0.8890  -13.6211    0.9140  -13.6304    0.9315
  9.010  -13.5675    0.9237  -13.7454    0.8479  -13.5788    0.9694  -13.6247    0.9010  -13.5795    0.9248  -13.5888    0.9423
  9.020  -13.5246    0.9382  -13.7069    0.8533  -13.5360    0.9839  -13.5834    0.9140  -13.5376    0.9366  -13.5469    0.9540
  9.030  -13.4814    0.9539  -13.6682    0.8592  -13.4929    0.9996  -13.5418    0.9280  -13.4954    0.9495  -13.5047    0.9667
  9.040  -13.4379    0.9711  -13.6293    0.8657  -13.4497    1.0168  -13.5001    0.9433  -13.4530    0.9635  -13.4623    0.9806
  9.050  -13.3943    0.9897  -13.5901    0.8727  -13.4062    1.0354  -13.4582    0.9599  -13.4102    0.9787  -13.4196    0.9958
  9.060  -13.3504    1.0100  -13.5506    0.8803  -13.3626    1.0557  -13.4162    0.9778  -13.3673    0.9953  -13.3766    1.0123
  9.070  -13.3064    1.0320  -13.5109    0.8886  -13.3189    1.0777  -13.3742    0.9973  -13.3241    1.0134  -13.3335    1.0303
  9.080  -13.2623    1.0560  -13.4709    0.8976  -13.2752    1.1017  -13.3321    1.0185  -13.2808    1.0331  -13.2902    1.0499
  9.090  -13.2182    1.0821  -13.4306    0.9074  -13.2315    1.1278  -13.2901    1.0415  -13.2373    1.0546  -13.2467    1.0713
  9.100  -13.1743    1.1105  -13.3901    0.9181  -13.1880    1.1562  -13.2482    1.0664  -13.1938    1.0780  -13.2033    1.0946
  9.110  -13.1306    1.1414  -13.3493    0.9297  -13.1448    1.1871  -13.2066    1.0935  -13.1503    1.1035  -13.1599    1.1200
  9.120  -13.0873    1.1751  -13.3081    0.9422  -13.1021    1.2207  -13.1655    1.1228  -13.1071    1.1313  -13.1167    1.1477
  9.130  -13.0446    1.2117  -13.2667    0.9559  -13.0602    1.2573  -13.1249    1.1546  -13.0641    1.1616  -13.0737    1.1779
  9.140  -13.0028    1.2516  -13.2251    0.9707  -13.0192    1.2970  -13.0852    1.1891  -13.0216    1.1946  -13.0313    1.2108
  9.150  -12.9622    1.2949  -13.1831    0.9868  -12.9795    1.3400  -13.0466    1.2264  -12.9799    1.2306  -12.9897    1.2466
  9.160  -12.9232    1.3419  -13.1410    1.0042  -12.9414    1.3867  -13.0093    1.2667  -12.9392    1.2696  -12.9491    1.2856
  9.170  -12.8862    1.3928  -13.0986    1.0232  -12.9056    1.4372  -12.9739    1.3102  -12.8998    1.3120  -12.9098    1.3279
  9.180  -12.8518    1.4480  -13.0560    1.0439  -12.8724    1.4917  -12.9406    1.3571  -12.8623    1.3581  -12.8723    1.3738
  9.190  -12.8207    1.5074  -13.0134    1.0663  -12.8425    1.5502  -12.9101    1.4073  -12.8269    1.4078  -12.8370    1.4234
  9.200  -12.7935    1.5713  -12.9707    1.0907  -12.8168    1.6130  -12.8829    1.4610  -12.7944    1.4615  -12.8047    1.4769
  9.210  -12.7713    1.6396  -12.9280    1.1172  -12.7960    1.6798  -12.8597    1.5181  -12.7654    1.5191  -12.7758    1.5343
  9.220  -12.7549    1.7121  -12.8854    1.1460  -12.7810    1.7506  -12.8412    1.5784  -12.7407    1.5806  -12.7512    1.5957
  9.230  -12.7455    1.7886  -12.8432    1.1774  -12.7729    1.8248  -12.8282    1.6416  -12.7211    1.6459  -12.7317    1.6608
  9.240  -12.7442    1.8685  -12.8014    1.2115  -12.7728    1.9019  -12.8216    1.7073  -12.7076    1.7147  -12.7183    1.7294
  9.250  -12.7522    1.9509  -12.7602    1.2486  -12.7817    1.9810  -12.8222    1.7747  -12.7011    1.7863  -12.7119    1.8008
  9.260  -12.7707    2.0345  -12.7200    1.2889  -12.8005    2.0609  -12.8306    1.8428  -12.7025    1.8600  -12.7135    1.8743
  9.270  -12.8007    2.1179  -12.6810    1.3327  -12.8302    2.1401  -12.8476    1.9106  -12.7128    1.9348  -12.7239    1.9488
  9.280  -12.8429    2.1991  -12.6436    1.3802  -12.8713    2.2166  -12.8735    1.9766  -12.7327    2.0093  -12.7439    2.0230
  9.290  -12.8976    2.2756  -12.6083    1.4316  -12.9238    2.2885  -12.9084    2.0391  -12.7625    2.0817  -12.7738    2.0951
  9.300  -12.9647    2.3451  -12.5756    1.4872  -12.9875    2.3534  -12.9520    2.0966  -12.8024    2.1504  -12.8138    2.1635
  9.310  -13.0431    2.4049  -12.5462    1.5472  -13.0613    2.4090  -13.0035    2.1474  -12.8519    2.2134  -12.8634    2.2261
  9.320  -13.1314    2.4525  -12.5208    1.6115  -13.1439    2.4533  -13.0618    2.1899  -12.9101    2.2689  -12.9217    2.2811
  9.330  -13.2272    2.4859  -12.5003    1.6803  -13.2329    2.4846  -13.1252    2.2230  -12.9758    2.3152  -12.9874    2.3270
  9.340  -13.3276    2.5036  -12.4858    1.7535  -13.3260    2.5017  -13.1920    2.2460  -13.0469    2.3511  -13.0586    2.3625
  9.350  -13.4295    2.5049  -12.4782    1.8306  -13.4203    2.5041  -13.2602    2.2587  -13.1216    2.3760  -13.1332    2.3869
  9.360  -13.5296    2.4901  -12.4788    1.9111  -13.5131    2.4922  -13.3280    2.2614  -13.1977    2.3897  -13.2093    2.4001
  9.370  -13.6249    2.4602  -12.4888    1.9942  -13.6019    2.4668  -13.3937    2.2548  -13.2734    2.3927  -13.2847    2.4026
  9.380  -13.7129    2.4170  -12.5094    2.0788  -13.6846    2.4295  -13.4561    2.2401  -13.3469    2.3859  -13.3581    2.3952
  9.390  -13.7917    2.3626  -12.5416    2.1633  -13.7596    2.3820  -13.5143    2.2184  -13.4172    2.3703  -13.4281    2.3791
  9.400  -13.8601    2.2995  -12.5862    2.2456  -13.8259    2.3263  -13.5680    2.1910  -13.4835    2.3471  -13.4940    2.3555
  9.410  -13.9177    2.2301  -12.6437    2.3237  -13.8832    2.2644  -13.6172    2.1591  -13.5454    2.3175  -13.5555    2.3255
  9.420  -13.9646    2.1566  -12.7141    2.3947  -13.9312    2.1979  -13.6621    2.1233  -13.6028    2.2824  -13.6124    2.2899
  9.430  -14.0012    2.0807  -12.7964    2.4562  -13.9704    2.1284  -13.7029    2.0843  -13.6559    2.2423  -13.6649    2.2496
  9.440  -14.0284    2.0041  -12.8894    2.5054  -14.0012    2.0571  -13.7399    2.0425  -13.7045    2.1978  -13.7131    2.2049
  9.450  -14.0470    1.9278  -12.9907    2.5401  -14.0241    1.9850  -13.7733    1.9978  -13.7487    2.1491  -13.7567    2.1560
  9.460  -14.0579    1.8526  -13.0976    2.5584  -14.0397    1.9129  -13.8031    1.9504  -13.7883    2.0965  -13.7958    2.1033
  9.470  -14.0619    1.7792  -13.2069    2.5595  -14.0486    1.8414  -13.8292    1.9002  -13.8230    2.0402  -13.8300    2.0470
  9.480  -14.0598    1.7079  -13.3149    2.5430  -14.0513    1.7710  -13.8511    1.8475  -13.8524    1.9806  -13.8589    1.9875
  9.490  -14.0523    1.6389  -13.4185    2.5100  -14.0483    1.7021  -13.8686    1.7926  -13.8761    1.9183  -13.8821    1.9252
  9.500  -14.0400    1.5726  -13.5147    2.4618  -14.0400    1.6351  -13.8814    1.7357  -13.8937    1.8538  -13.8994    1.8608
  9.510  -14.0234    1.5090  -13.6010    2.4007  -14.0268    1.5703  -13.8891    1.6776  -13.9052    1.7880  -13.9105    1.7952
  9.520  -14.0030    1.4483  -13.6760    2.3293  -14.0094    1.5080  -13.8918    1.6189  -13.9105    1.7217  -13.9154    1.7291
  9.530  -13.9793    1.3906  -13.7385    2.2501  -13.9880    1.4485  -13.8894    1.5602  -13.9096    1.6557  -13.9143    1.6633
  9.540  -13.9527    1.3359  -13.7884    2.1659  -13.9633    1.3918  -13.8821    1.5021  -13.9030    1.5908  -13.9075    1.5986
  9.550  -13.9236    1.2842  -13.8260    2.0789  -13.9357    1.3382  -13.8702    1.4454  -13.8912    1.5277  -13.8954    1.5357
  9.560  -13.8924    1.2354  -13.8520    1.9912  -13.9056    1.2876  -13.8541    1.3903  -13.8746    1.4668  -13.8787    1.4750
  9.570  -13.8595    1.1897  -13.8673    1.9045  -13.8734    1.2400  -13.8343    1.3373  -13.8537    1.4085  -13.8577    1.4169
  9.580  -13.8253    1.1468  -13.8731    1.8199  -13.8397    1.1954  -13.8112    1.2867  -13.8293    1.3532  -13.8332    1.3617
  9.590  -13.7899    1.1066  -13.8707    1.7384  -13.8046    1.1537  -13.7853    1.2386  -13.8019    1.3008  -13.8057    1.3096
  9.600  -13.7538    1.0691  -13.8610    1.6607  -13.7686    1.1148  -13.7571    1.1931  -13.7720    1.2516  -13.7757    1.2605
  9.610  -13.7170    1.0340  -13.8454    1.5871  -13.7318    1.0785  -13.7269    1.1503  -13.7400    1.2055  -13.7437    1.2145
  9.620  -13.6799    1.0013  -13.8247    1.5178  -13.6946    1.0446  -13.6952    1.1100  -13.7064    1.1623  -13.7101    1.1715
  9.630  -13.6425    0.9707  -13.7998    1.4528  -13.6570    1.0131  -13.6623    1.0723  -13.6716    1.1220  -13.6753    1.1313
  9.640  -13.6050    0.9422  -13.7716    1.3921  -13.6193    0.9837  -13.6284    1.0370  -13.6359    1.0844  -13.6396    1.0938
  9.650  -13.5676    0.9155  -13.7407    1.3356  -13.5817    0.9562  -13.5938    1.0039  -13.5996    1.0494  -13.6032    1.0589
  9.660  -13.5302    0.8906  -13.7078    1.2830  -13.5441    0.9306  -13.5588    0.9730  -13.5628    1.0169  -13.5664    1.0264
  9.670  -13.4931    0.8674  -13.6731    1.2341  -13.5067    0.9067  -13.5234    0.9441  -13.5257    0.9865  -13.5294    0.9961
  9.680  -13.4562    0.8456  -13.6373    1.1888  -13.4695    0.8844  -13.4878    0.9172  -13.4886    0.9582  -13.4923    0.9679
  9.690  -13.4196    0.8252  -13.6006    1.1467  -13.4326    0.8635  -13.4522    0.8919  -13.4515    0.9319  -13.4552    0.9416
  9.700  -13.3833    0.8060  -13.5633    1.1076  -13.3961    0.8439  -13.4166    0.8683  -13.4145    0.9073  -13.4182    0.9171
  9.710  -13.3474    0.7881  -13.5255    1.0712  -13.3599    0.8256  -13.3812    0.8462  -13.3777    0.8843  -13.3814    0.8941
  9.720  -13.3118    0.7712  -13.4876    1.0375  -13.3242    0.8083  -13.3459    0.8255  -13.3412    0.8629  -13.3449    0.8727
  9.730  -13.2767    0.7553  -13.4497    1.0061  -13.2888    0.7921  -13.3109    0.8061  -13.3050    0.8428  -13.3087    0.8527
  9.740  -13.2420    0.7404  -13.4118    0.9769  -13.2539    0.7769  -13.2761    0.7878  -13.2692    0.8240  -13.2729    0.8339
  9.750  -13.2076    0.7263  -13.3740    0.9497  -13.2193    0.7625  -13.2416    0.7707  -13.2337    0.8063  -13.2374    0.8162
  9.760  -13.1737    0.7129  -13.3365    0.9243  -13.1852    0.7489  -13.2074    0.7546  -13.1985    0.7898  -13.2023    0.7997
  9.770  -13.1402    0.7003  -13.2993    0.9006  -13.1515    0.7361  -13.1736    0.7394  -13.1638    0.7742  -13.1676    0.7841
  9.780  -13.1071    0.6884  -13.2624    0.8784  -13.1182    0.7240  -13.1402    0.7250  -13.1295    0.7595  -13.1333    0.7694
  9.790  -13.0743    0.6771  -13.2259    0.8577  -13.0854    0.7125  -13.1070    0.7115  -13.0956    0.7457  -13.0994    0.7556
  9.800  -13.0420    0.6664  -13.1898    0.8382  -13.0529    0.7015  -13.0743    0.6987  -13.0622    0.7326  -13.0660    0.7425
  9.810  -13.0101    0.6562  -13.1541    0.8200  -13.0208    0.6912  -13.0419    0.6866  -13.0291    0.7203  -13.0329    0.7302
  9.820  -12.9785    0.6465  -13.1189    0.8028  -12.9891    0.6813  -13.0098    0.6751  -12.9964    0.7086  -13.0002    0.7185
  9.830  -12.9473    0.6373  -13.0840    0.7867  -12.9578    0.6719  -12.9782    0.6643  -12.9642    0.6975  -12.9680    0.7074
  9.840  -12.9165    0.6285  -13.0496    0.7715  -12.9268    0.6630  -12.9468    0.6539  -12.9323    0.6870  -12.9361    0.6968
  9.850  -12.8860    0.6201  -13.0157    0.7571  -12.8962    0.6544  -12.9158    0.6441  -12.9008    0.6770  -12.9046    0.6868
  9.860  -12.8558    0.6121  -12.9821    0.7436  -12.8660    0.6463  -12.8852    0.6347  -12.8697    0.6675  -12.8735    0.6773
  9.870  -12.8260    0.6044  -12.9490    0.7308  -12.8360    0.6385  -12.8549    0.6258  -12.8389    0.6584  -12.8428    0.6683
  9.880  -12.7965    0.5970  -12.9163    0.7186  -12.8065    0.6310  -12.8249    0.6173  -12.8085    0.6498  -12.8124    0.6596
  9.890  -12.7673    0.5900  -12.8840    0.7071  -12.7772    0.6238  -12.7952    0.6092  -12.7785    0.6416  -12.7824    0.6513
  9.900  -12.7385    0.5833  -12.8521    0.6962  -12.7482    0.6170  -12.7659    0.6014  -12.7488    0.6337  -12.7527    0.6434
  9.910  -12.7099    0.5768  -12.8206    0.6858  -12.7196    0.6104  -12.7369    0.5939  -12.7194    0.6261  -12.7233    0.6359
  9.920  -12.6816    0.5705  -12.7895    0.6759  -12.6912    0.6040  -12.7081    0.5868  -12.6904    0.6189  -12.6942    0.6286
  9.930  -12.6536    0.5645  -12.7588    0.6665  -12.6632    0.5979  -12.6797    0.5800  -12.6616    0.6120  -12.6655    0.6217
  9.940  -12.6259    0.5588  -12.7285    0.6575  -12.6354    0.5920  -12.6515    0.5734  -12.6332    0.6054  -12.6371    0.6150
  9.950  -12.5984    0.5532  -12.6984    0.6489  -12.6078    0.5864  -12.6236    0.5671  -12.6051    0.5990  -12.6089    0.6086
  9.960  -12.5712    0.5478  -12.6688    0.6408  -12.5806    0.5809  -12.5960    0.5610  -12.5772    0.5929  -12.5811    0.6025
  9.970  -12.5443    0.5427  -12.6395    0.6329  -12.5536    0.5756  -12.5686    0.5552  -12.5496    0.5870  -12.5535    0.5965
  9.980  -12.5175    0.5377  -12.6105    0.6254  -12.5268    0.5705  -12.5415    0.5496  -12.5223    0.5813  -12.5262    0.5908
  9.990  -12.4911    0.5328  -12.5818    0.6182  -12.5003    0.5656  -12.5146    0.5442  -12.4953    0.5758  -12.4991    0.5853
 10.000  -12.4648    0.5282  -12.5534    0.6113  -12.4740    0.5608  -12.4880    0.5389  -12.4685    0.5705  -12.4724    0.5800
